790,0.000248845666230107
788,0.00022108392380269
786,0.00021779043364015
784,0.000159736877215837
782,0.000102582721018313
780,8.58417449316924e-05
778,0.00017573757504384
776,-2.51667699863651e-05
774,-5.44886128803003e-05
772,-0.000111450339608886
770,-0.000190780145484446
768,-0.000111243499362617
766,-0.000192398688117707
764,-0.000191933888433414
762,-0.000242113840256018
760,-0.00024809063746587
758,-0.00026597210573059
756,-0.00029380439317887
754,-0.000369639496054907
752,-0.000367378424605277
750,-0.000495994061006021
748,-0.000570407538543286
746,-0.000570403789843269
744,-0.000684362971438838
742,-0.00065403298544554
740,-0.00076024985877238
738,-0.000618704722468519
736,-0.000578261217709222
734,-0.000524836772326619
732,-0.000430952747039329
730,-0.000390672274999809
728,-0.000367158722884513
726,-0.000365780939053183
724,-0.000308114766823272
722,-0.000313517077488709
720,-0.00024061034885922
718,-0.000177317009170906
716,-0.000141214393871899
714,-0.000119642799226119
712,-4.28391317755749e-05
710,-7.05352139331552e-05
708,-9.47885504535054e-05
706,-8.66290733567179e-05
704,-0.000146501015788236
702,-9.10788316599906e-05
700,3.69314496834294e-05
698,8.09530378050769e-05
696,-2.18094789522066e-05
694,9.0147907523496e-05
692,7.00701202666628e-05
690,5.88214469615983e-05
688,-2.74719146144272e-05
686,0.000103246570975934
684,7.47096190578582e-05
682,-5.3310379215609e-05
680,8.00810655745961e-05
678,5.38134767136997e-06
676,5.71298449459132e-05
674,3.83641576356034e-06
672,-7.01541533051578e-05
670,-8.81353870376556e-05
668,-6.34890172274045e-05
666,-2.19838855789137e-05
664,1.67759427903556e-05
662,-2.44471969156718e-05
660,3.25239663580688e-06
658,7.39289040356174e-05
656,3.71625246705579e-05
654,7.41475309324792e-05
652,7.59004296900621e-05
650,4.10951119776549e-05
648,-2.67964343734372e-06
646,2.24925557260226e-05
644,6.97961348126519e-05
642,8.26549718861805e-05
640,5.36305123302097e-05
638,-2.40026440854727e-06
636,1.7667912625254e-05
634,-5.39074007665533e-05
632,1.18095061399268e-05
630,-4.96799647694791e-05
628,-4.97561215604945e-05
626,-6.66334858299806e-05
624,-1.12387865733292e-05
622,-3.39082967966793e-05
620,-2.90782421364696e-05
618,-2.67052060931987e-05
616,-4.69390694435172e-05
614,-5.57768457139214e-05
612,-7.63356086468389e-05
610,-9.23470879308543e-05
608,-3.80367505301166e-05
606,-1.75849876299428e-05
604,-5.8031061480739e-05
602,-2.22235353106282e-05
600,3.48077762605923e-06
598,4.77719267058063e-06
596,2.84705261588974e-05
594,3.68927469968198e-06
592,4.98750621647951e-05
590,4.43830500016513e-05
588,9.50479619590984e-05
586,4.2138656099523e-05
584,5.67894443499592e-05
582,0.000125117261853628
580,7.81276678036227e-05
578,0.000109533162617085
576,9.8178161425308e-05
574,0.000150863556518796
572,8.7615629382871e-05
570,0.000105105531180789
568,0.000127630041648612
566,0.000157683390125061
564,0.000153929385153873
562,0.000155983485153393
560,0.000178546968837696
558,0.000188456498269939
556,0.000201026475019919
554,0.000194028517648271
552,0.000227308603445834
550,0.000258909536517597
548,0.000230742129715983
546,0.000240398971745803
544,0.000224329744405816
542,0.000259168092602469
540,0.000281252240374865
538,0.000273144631857898
536,0.000292439892418064
534,0.000309309683709793
532,0.000316994985077227
530,0.000338289539928058
528,0.000364680541733387
526,0.000374973351536478
524,0.000346880380831998
522,0.000384115476666743
520,0.000412014685839262
518,0.000411938890602488
516,0.000436497680915236
514,0.000451197259574771
512,0.000459532894892143
510,0.000474739092583615
508,0.000506341440335201
506,0.000541173714873807
504,0.000555429536274681
502,0.000563467607475125
500,0.000574193966076502
498,0.000619139781480914
496,0.000656978833347472
494,0.000697543445458927
492,0.000749919702853363
490,0.000738548978186172
488,0.000778920174927313
486,0.000798707802180755
484,0.000823650737256579
482,0.000860031828415044
480,0.000859350359542421
478,0.000904596551989372
476,0.000958308555257414
474,0.00100721393856308
472,0.00102129961873497
470,0.000994577701878237
468,0.000988286303532897
466,0.00102589379943918
464,0.00103844159600323
462,0.00103653144029177
460,0.00110069780251823
458,0.00110060274474353
456,0.00118236177474931
454,0.00120103148580592
452,0.00125889493837716
450,0.00128364760277467
448,0.00137204804183326
446,0.00141959132213233
444,0.00148614716555944
442,0.00158067979836517
440,0.00166416766388938
438,0.00177185648949816
436,0.0018236692056805
434,0.00190536651685151
432,0.00198458791164197
430,0.0020951754257725
428,0.00219293307474618
426,0.00227481405807936
424,0.00232717014801606
422,0.00249223815838772
420,0.00267930437828246
418,0.00275215019140612
416,0.00289453278322367
414,0.00288252190213862
412,0.00298263122144672
410,0.00304074699887829
408,0.00317600186414689
406,0.00332813287306338
404,0.00344796190181353
402,0.00357745591103537
400,0.00372106180769896
398,0.00386417374289251
396,0.00398894601762921
394,0.00413559864864393
392,0.00429584375363249
390,0.00446941151713573
388,0.00465133770572427
386,0.00483568638115913
384,0.00502526547287537
382,0.00519949684677975
380,0.00540496845710481
378,0.00558836483255736
376,0.00579878078163978
374,0.00610254134236693
372,0.00630685619248233
370,0.00650191976597397
368,0.00681091505387357
366,0.00708583750474959
364,0.00733960489997264
362,0.00763568649155365
360,0.0079154268035037
358,0.00826643044805504
356,0.00856387845378544
354,0.00893471810276354
352,0.00945152796798406
350,0.00985293032794776
348,0.0102295462143164
346,0.0105691389929276
344,0.0109509042607118
342,0.0113101847764446
340,0.0116633715427841
338,0.0120004859629306
336,0.0124698858307878
334,0.0129139991782514
332,0.0133767329363508
330,0.0138755891154672
328,0.0144140399564795
326,0.0149557109630116
324,0.0155603174738819
322,0.0161572148781244
320,0.0167732642790679
318,0.017475307553358
316,0.0182370776502717
314,0.0189847708073755
312,0.0197976078199672
310,0.0206836680941808
308,0.0215435766450898
306,0.0225673995003333
304,0.0235368279587146
302,0.0247084798602086
300,0.0259548127162755
298,0.0272182987532978
296,0.0287082380283311
294,0.0303933380950519
292,0.0320263781803025
290,0.0337676675253623
288,0.0356736555083678
286,0.037682920729587
284,0.039721073052664
282,0.041786384308868
280,0.0437126388469568
278,0.0456671367406285
276,0.0475643796579126
274,0.0496003487787571
272,0.0515337616015829
270,0.0532617661209357
268,0.055064086354404
266,0.0567599879472769
264,0.0584554728422189
262,0.0600127511598199
260,0.0616213130024493
258,0.0630894199351547
256,0.0646768759226971
254,0.0662671875907124
252,0.0679208570441677
250,0.0696031331612738
248,0.0713714678148813
246,0.0732924891880804
244,0.0752773405380924
242,0.0778716732776245
240,0.0803310260337158
