790,0.00192565343737545
788,0.00196439350539506
786,0.00197960172307787
784,0.00196249963733416
782,0.00198833301294067
780,0.00188451258602654
778,0.00182952892271279
776,0.00176902110005976
774,0.00185392289445419
772,0.00183642833175538
770,0.00178724899802528
768,0.00199279976806925
766,0.00199602887161297
764,0.00182631263855516
762,0.00171413006529835
760,0.00175294153072064
758,0.00178743417682375
756,0.00170880622284532
754,0.00185355662454377
752,0.00183791540252226
750,0.00172467638179299
748,0.00172402641128171
746,0.00175369912433079
744,0.00174045354115433
742,0.00176664562876364
740,0.00173850549536058
738,0.00172167302486348
736,0.00177835512121678
734,0.00171784167292508
732,0.00177064006068191
730,0.00174591269410209
728,0.00170332826982909
726,0.00173667552297346
724,0.00179577555833505
722,0.0018211762099921
720,0.00189476804110296
718,0.00194835679264735
716,0.00195938228035801
714,0.00206181120025373
712,0.001974176442749
710,0.0018979668805216
708,0.00194232622220659
706,0.00180820423658312
704,0.00174111552002608
702,0.00177428581722698
700,0.00196205551301072
698,0.00187968328825114
696,0.00188058489627506
694,0.00209065184999795
692,0.00206900428112299
690,0.00215805098335445
688,0.00206411702717847
686,0.00213468393979137
684,0.00218521306292927
682,0.00213155410394354
680,0.00216309469142996
678,0.00219933613579403
676,0.00217645837287341
674,0.00216795450194832
672,0.00217797893525048
670,0.00213004280895567
668,0.00219903303393168
666,0.0021390664450303
664,0.00226615478765237
662,0.00224066995738883
660,0.00237964983326463
658,0.00236071209580271
656,0.00236207398623737
654,0.00236947434500614
652,0.00245016936274094
650,0.00239597713423272
648,0.00232496890621086
646,0.00238390480811388
644,0.00240761284750498
642,0.00252194264007527
640,0.00256248877970629
638,0.002511721002973
636,0.00267244583543841
634,0.00261581926216486
632,0.00269516280835605
630,0.00272118789902835
628,0.00273692554880223
626,0.0027105723260733
624,0.00277077066767386
622,0.00285722388981074
620,0.00288062502049181
618,0.00291486819877368
616,0.00291403086555045
614,0.00299336764114014
612,0.00295389907248914
610,0.00306614175323194
608,0.00310413868615296
606,0.00311277348848262
604,0.0031499139837114
602,0.00310185101773404
600,0.00318666495665873
598,0.00313143901801103
596,0.00318902732855784
594,0.00320973680277003
592,0.00326043940994452
590,0.0032867164046209
588,0.0033451857036317
586,0.00338942581542901
584,0.00347557255418436
582,0.00353795491035789
580,0.00359195814318799
578,0.00365961651167212
576,0.00370967764565966
574,0.00380735142780706
572,0.00385110934946477
570,0.00389468761336838
568,0.00401643363256078
566,0.00411817850460915
564,0.00417212936661065
562,0.00421732859827186
560,0.00430221462507225
558,0.0043263604389892
556,0.0044041413684391
554,0.00442793886469931
552,0.004444697024104
550,0.00450849853174595
548,0.00459283310334958
546,0.00462461887772851
544,0.00472119423162601
542,0.00479297602789115
540,0.00486784023549141
538,0.00498585067992671
536,0.00503147046584205
534,0.00512741770016544
532,0.00529771018345953
530,0.00542382538536217
528,0.00551628679734974
526,0.00564162029519129
524,0.00568614776466961
522,0.00581185218086085
520,0.00592992102752306
518,0.00608090738617801
516,0.00622197453615904
514,0.00636878155966919
512,0.00652994240984583
510,0.00666510005994374
508,0.00681219405508864
506,0.00687072538972199
504,0.00706627173818048
502,0.00711266155916225
500,0.0071920886167457
498,0.007337230105328
496,0.00742788898729891
494,0.00764214781536389
492,0.00778897263366761
490,0.0079053148907153
488,0.00805701024668639
486,0.00823828223790984
484,0.00838955590251906
482,0.00864218716719036
480,0.00878039858879381
478,0.0089662304051705
476,0.00918331910396127
474,0.00942027064943564
472,0.0096372045521742
470,0.00987318793714966
468,0.0101230179369687
466,0.0103845744625565
464,0.0105870535691088
462,0.0107607084999213
460,0.0109936415795066
458,0.0112091364472037
456,0.0114712183076526
454,0.0116964419732931
452,0.0119798455817703
450,0.0122221844989583
448,0.0125217605614895
446,0.0128292513850584
444,0.0131652096787206
442,0.0135639801387999
440,0.0139656110509363
438,0.0143652969467315
436,0.0148071728448951
434,0.015188003814461
432,0.0156317799972742
430,0.0161560749780281
428,0.0166241279810863
426,0.0171200378793744
424,0.0175046305521413
422,0.0179360892953088
420,0.0184475274391699
418,0.0189696489941685
416,0.0196407630562976
414,0.0201650955814674
412,0.0209170379963728
410,0.0216243216830568
408,0.0223563559705846
406,0.023074041886317
404,0.0238812811822543
402,0.0247307787033166
400,0.0255842484093089
398,0.0264419218465639
396,0.0272245322644446
394,0.0280785093770278
392,0.0289752196156165
390,0.029914051421438
388,0.0308604692406854
386,0.0318474135240432
384,0.0329538630436302
382,0.0340556546435204
380,0.0352180056942612
378,0.0364013557851706
376,0.0376451648983093
374,0.0390867048598627
372,0.0404543445709084
370,0.0418976270596019
368,0.0435189932212076
366,0.0451594593330224
364,0.0467912945710815
362,0.0485256959183236
360,0.050267874990174
358,0.0521539006623926
356,0.0540284019888914
354,0.0559065159093857
352,0.0580160901413775
350,0.0600904656721193
348,0.0623336959918373
346,0.0646806675590493
344,0.0671393017083167
342,0.0694819586199611
340,0.0718915875112825
338,0.0744980888350243
336,0.0770585436061622
334,0.0797123791004446
332,0.0824908621468642
330,0.0853005965811746
328,0.0882864113724534
326,0.0913168832054147
324,0.0944275134718441
322,0.0978031018957719
320,0.101265665297405
318,0.1047614592332
316,0.108595045456077
314,0.112441346467847
312,0.116323706921952
310,0.120451457424985
308,0.124627535341981
306,0.129049618835175
304,0.133413946611511
302,0.138232789920844
300,0.142955763702101
298,0.148014650663584
296,0.153421211948662
294,0.159258957623457
292,0.16504299182604
290,0.171243729218139
288,0.177624551485096
286,0.184577575196582
284,0.191396991147066
282,0.198179595235673
280,0.205043940945067
278,0.212025330749007
276,0.218832674121493
274,0.226462692153587
272,0.233770412513444
270,0.240828680651332
268,0.248172894321889
266,0.255375765279562
264,0.262444399183692
262,0.269328255921199
260,0.276157277058012
258,0.282411033074262
256,0.288630730831446
254,0.294791400697844
252,0.301245627554809
250,0.30775175826078
248,0.314356350099773
246,0.321503686373298
244,0.329647687863157
242,0.338556419836903
240,0.348638803298907
