790,0.000393172885888292
788,0.000514232313236544
786,0.000483541965651311
784,0.000465878920605906
782,0.000430730699125265
780,0.000406338262447437
778,0.000292519900034254
776,0.000221913669393335
774,0.000357393025978386
772,0.000256511453875769
770,0.00022363427305564
768,0.000369979297857123
766,0.000396904800665233
764,0.000416384689805945
762,0.000251886174567563
760,0.00028964634611423
758,0.000329322429573327
756,0.00018296876166343
754,0.000335010169604671
752,0.000233065785538255
750,0.000222094676710556
748,0.000237584424860659
746,0.000287406403904522
744,0.000261733353504063
742,0.00024795953791591
740,0.000192420541383892
738,0.000220508415181785
736,0.000295338599576722
734,0.000238330318029039
732,0.000309838058078489
730,0.000237809381634469
728,0.000199292649871309
726,0.000168144101009736
724,0.000196515205673928
722,0.00012549260413633
720,0.00022523780323883
718,0.000277978308526258
716,0.000300280406544212
714,0.000390300981618477
712,0.000318418286736832
710,0.00020042337397112
708,0.000251929494767049
706,0.000218283504700626
704,4.64452921848555e-05
702,0.000143785325748887
700,0.000367359167375367
698,0.000256070576427784
696,0.000316178697854056
694,0.000310447240247482
692,0.000380932373095906
690,0.000321187625649847
688,0.000243483480914783
686,0.000303851594754057
684,0.000403083126366321
682,0.000237190294484335
680,0.000329371815975034
678,0.000367358918701219
676,0.000372866147303425
674,0.000378611211875981
672,0.000313796119814655
670,0.000315560791543955
668,0.000351111789985362
666,0.000278759515291731
664,0.000300260092330936
662,0.000337149604133559
660,0.000367594655104174
658,0.000363227833285401
656,0.000378610212241054
654,0.000386977196590029
652,0.000394127660517918
650,0.000418157944863945
648,0.000339163085581503
646,0.000361746380827873
644,0.000393680763692814
642,0.000426544281631605
640,0.000458592907983076
638,0.000418540655379947
636,0.00046380453721497
634,0.000438619641537099
632,0.000516494625252514
630,0.000507992822547847
628,0.000492705694738265
626,0.000529777721379365
624,0.000528509459000065
622,0.000562705398947085
620,0.00058565977795459
618,0.000648372501069658
616,0.000595866665390913
614,0.000626526769624417
612,0.000624430267835998
610,0.000635534894978039
608,0.000649906341254898
606,0.000652789925364472
604,0.000653083424125808
602,0.000683103614779776
600,0.000732614745025736
598,0.000728040155469733
596,0.000751596966749102
594,0.000798548362752252
592,0.000817379634384421
590,0.000831378440900052
588,0.000843028589895959
586,0.00088766094540363
584,0.000867586814606093
582,0.000942545869459457
580,0.000922589073367889
578,0.000963656632769903
576,0.000960084868423412
574,0.00102639317841663
572,0.00102930114957019
570,0.0010693929464895
568,0.00112786915443868
566,0.00116230706530039
564,0.0011677733710796
562,0.00120343844200737
560,0.00126410559676648
558,0.0012553485164239
556,0.00132018527402022
554,0.00132954115174001
552,0.00141807261456402
550,0.00145054309885689
548,0.00148630976848209
546,0.00150282581527861
544,0.0015531267914164
542,0.00163366906493961
540,0.00167515476639924
538,0.00170424521776257
536,0.00174982674402333
534,0.00180627811790287
532,0.00184675721336528
530,0.00191570400322687
528,0.00198245091766993
526,0.00205890487242818
524,0.00207137381955033
522,0.00215534114502901
520,0.0022137750667749
518,0.00225901363017428
516,0.00235891941550503
514,0.00240289664583336
512,0.00246068398759415
510,0.00253926763007066
508,0.00263683604554607
506,0.00266944192562651
504,0.00281750580640367
502,0.00279424262312581
500,0.00288845298892482
498,0.00297269703502322
496,0.00301220284420438
494,0.00314060709058898
492,0.00324489299963638
490,0.00334073002504415
488,0.00344245702037552
486,0.00352334155352609
484,0.00362984557124213
482,0.00372448327643505
480,0.0037718704516357
478,0.00393378227927122
476,0.00409304381662429
474,0.00422512960390029
472,0.00432132151317428
470,0.00448220019178655
468,0.00463005121407272
466,0.00481274798479094
464,0.00488428362384281
462,0.00501457684802875
460,0.00519113993252678
458,0.00533409848112985
456,0.00553185871667843
454,0.00564444556494568
452,0.0058504630681189
450,0.00602272868249057
448,0.0062347542398441
446,0.00649364723649002
444,0.00679336110659625
442,0.00707833464746994
440,0.00737365954107187
438,0.00768132465290265
436,0.0079634339043607
434,0.00829582557317542
432,0.0086023114221241
430,0.00893812012869926
428,0.00927272158007341
426,0.00960681632703649
424,0.00988980477374103
422,0.0102276545079451
420,0.0105865124134935
418,0.0109214417962742
416,0.0113620956490502
414,0.0117222016974616
412,0.0122735687297125
410,0.0127595253037232
408,0.0133253079688408
406,0.0138602656120795
404,0.014419068133535
402,0.015020775059912
400,0.0156416642599913
398,0.0162826218843955
396,0.0168973122992433
394,0.0175314106200328
392,0.0182444930475269
390,0.0189953188657405
388,0.0196985216425697
386,0.0204714247717062
384,0.0212739204538639
382,0.0220873968826647
380,0.0229873029391073
378,0.0238269097149482
376,0.0247593791042688
374,0.0257892447402428
372,0.0267941143375304
370,0.0278615277589922
368,0.0290124272579157
366,0.0301870670578003
364,0.0313411805866727
362,0.0326593464082271
360,0.0339174578032191
358,0.0353121946140548
356,0.0366662517126153
354,0.0380561820158543
352,0.0396308640582923
350,0.0411211719360483
348,0.0428674738880066
346,0.044635146221752
344,0.0465319984340532
342,0.0483521057685971
340,0.0502647680358462
338,0.0523048893695438
336,0.0543482394687619
334,0.0564896955279531
332,0.0586741381640774
330,0.060965859909685
328,0.0634105084874267
326,0.065876891384238
324,0.0685112071300859
322,0.0713102717349173
320,0.074181223204633
318,0.0771694703199618
316,0.0803739820431477
314,0.0835924010458355
312,0.0868954714538577
310,0.0903797439333224
308,0.0939709285848047
306,0.0977813868570692
304,0.101637911310822
302,0.105910521610267
300,0.110219083883726
298,0.114705446446155
296,0.119618956997885
294,0.124936303843603
292,0.13024161400522
290,0.135911138514001
288,0.141763410728881
286,0.148106844773582
284,0.15439405001174
282,0.160871051775504
280,0.167449883328033
278,0.174049225787994
276,0.180508736698924
274,0.187671070407807
272,0.194455500418005
270,0.201103563580226
268,0.207983739801652
266,0.214744923305319
264,0.221210717182656
262,0.227347424258897
260,0.233567613618596
258,0.239206700277684
256,0.24470304111027
254,0.250020237965778
252,0.255436489696779
250,0.260864563650676
248,0.26609334233763
246,0.271627247079811
244,0.277963084180267
242,0.284924152419288
240,0.292764876898274
