790,0.00122886882381758
788,0.00128043741152621
786,0.00118905840888458
784,0.00123190729585665
782,0.0011944704642887
780,0.00104321452464234
778,0.00111465976158783
776,0.0011625020342666
774,0.00108560009576447
772,0.000919900144005649
770,0.00114993778302888
768,0.00102165775904116
766,0.00125502684626395
764,0.000990118494884493
762,0.00101079675150211
760,0.00111820191733048
758,0.00112212555680161
756,0.0010218562363418
754,0.00102093782625959
752,0.000950485732437177
750,0.000972150754841537
748,0.00101761910225693
746,0.000977225203743944
744,0.00108648626311897
742,0.000987991153270191
740,0.00105469139384979
738,0.00107962847888204
736,0.00113267417850449
734,0.00106430125458692
732,0.000980630058284286
730,0.000875207706477789
728,0.000835317947676225
726,0.000784942716265033
724,0.000860764802552144
722,0.00109386735860295
720,0.00127575491896147
718,0.00134328797376642
716,0.00143701059747166
714,0.00119859728722388
712,0.00123286080689763
710,0.00112997733100528
708,0.00118280024958901
706,0.00118765921723318
704,0.000993464555976174
702,0.0011321348944868
700,0.00112298897484311
698,0.0011578806121306
696,0.00113631228174158
694,0.00114446805273061
692,0.00116836878247226
690,0.00123562680608259
688,0.00110158312056357
686,0.00117583576504681
684,0.00123403319208699
682,0.00132184218837619
680,0.00126716810762609
678,0.00132820622738791
676,0.00131293264441949
674,0.00126850378392209
672,0.00138793263126156
670,0.00123637062514504
668,0.0014091576903941
666,0.00128146311775916
664,0.00147958173931213
662,0.00140698436526833
660,0.00132767851431786
658,0.00145532480870066
656,0.00152913940382603
654,0.0014587275650988
652,0.00150377080461796
650,0.00152452579634019
648,0.00147910032549275
646,0.00156692817503785
644,0.00153927352552754
642,0.00162397295881627
640,0.00162118270401638
638,0.00152864160813459
636,0.00168979299387106
634,0.00166149591448425
632,0.00173681557004952
630,0.00166231966877625
628,0.00171489810179877
626,0.00173640182568362
624,0.00184502944718096
622,0.00180347218766156
620,0.00184306062864797
618,0.00188464511043881
616,0.00190664884719244
614,0.00198878289751215
612,0.00198704845332234
610,0.00201636388073831
608,0.00202180815211891
606,0.00208641013555242
604,0.0021086028568121
602,0.00215151824128593
600,0.00216885247867052
598,0.00220869610418495
596,0.00224864221143549
594,0.00218535783876399
592,0.00236747344017928
590,0.00242970114165872
588,0.00232201306981091
586,0.00245163826796415
584,0.00238978315442677
582,0.00251891261875115
580,0.00256376473709322
578,0.00251512388786014
576,0.00271923970138035
574,0.00264448931195475
572,0.00271127850911006
570,0.00277336480063868
568,0.00272519420499359
566,0.00289502865889674
564,0.00288070867878728
562,0.00298403049353548
560,0.00299423470195186
558,0.00308152399461051
556,0.00315979334978723
554,0.00319224877708026
552,0.00317608593069963
550,0.00335605603497625
548,0.0034596167906714
546,0.0033511491888406
544,0.00350735895263163
542,0.00368049917709101
540,0.00373542464266228
538,0.00365590689005666
536,0.00387071219862504
534,0.00397091938673377
532,0.00392491109582993
530,0.00412878873521895
528,0.00414471193880495
526,0.00427694279513171
524,0.00430450573124346
522,0.0044233636584244
520,0.00450228142478232
518,0.00466600055946431
516,0.0046637651781324
514,0.00477799650208612
512,0.00486866227302145
510,0.00505558370593696
508,0.00511872178058796
506,0.00523145640849019
504,0.00536246099242861
502,0.00550485957601761
500,0.0055452619312972
498,0.00558597670753825
496,0.00563962927674424
494,0.00592719224042141
492,0.00607790732408295
490,0.00611925642963462
488,0.00620455920467728
486,0.00624957161501188
484,0.00650141081048938
482,0.00646942841255027
480,0.0066147773596403
478,0.00675734077687033
476,0.00677559290080505
474,0.0070374417059386
472,0.00706190536049298
470,0.00720975487195392
468,0.00737970272137737
466,0.00749782606564008
464,0.00755685345932014
462,0.00764700240485282
460,0.00778765682161799
458,0.00786069534971737
456,0.00800571749873294
454,0.00803556622950346
452,0.00826032596997096
450,0.00835376138406514
448,0.00848672640510461
446,0.00863500696497115
444,0.00873047784415865
442,0.0088759416983399
440,0.00906202703459394
438,0.00922280035234199
436,0.00939456612970549
434,0.00961248279430025
432,0.00974055440217951
430,0.00991538108163686
428,0.0101287950032137
426,0.0102377629228582
424,0.0104488487977562
422,0.0106419907237944
420,0.0109511281394414
418,0.0112135195843928
416,0.0113075523791517
414,0.011599389886074
412,0.0119538320071846
410,0.0121694601410381
408,0.0124418045336587
406,0.0127353899075108
404,0.0130750326991727
402,0.0135512648487296
400,0.01388210721226
398,0.0143333904841253
396,0.0148454902803028
394,0.0153655284679899
392,0.0158691912963665
390,0.0164683453409934
388,0.0170509353813782
386,0.0177047037055676
384,0.0184072081599882
382,0.0190791123684453
380,0.0198515408505502
378,0.0205551829550451
376,0.021347206492414
374,0.0221966997543207
372,0.0230355031768178
370,0.0238957765674822
368,0.0247202848991213
366,0.0256290861338544
364,0.0264672724771264
362,0.0272784298687697
360,0.028182395811173
358,0.0289932626403386
356,0.0297847470029055
354,0.0305545296102901
352,0.0314523834464902
350,0.032142693551248
348,0.0329668674325972
346,0.0337693078718877
344,0.0345723643440862
342,0.0353539576927015
340,0.0361540979329097
338,0.0369860637469449
336,0.0378096763872564
334,0.0385965404687117
332,0.0394023427698687
330,0.0403362990347763
328,0.041251006978795
326,0.0422539119922874
324,0.0434291894415546
322,0.0447577975152126
320,0.0462000272109284
318,0.0477431367884783
316,0.0496246427648384
314,0.0515811387042463
312,0.0536835256057258
310,0.0559202522787589
308,0.0582879341168238
306,0.0607992783518607
304,0.0634236666276692
302,0.0662280641761067
300,0.0692841065450976
298,0.07270533962388
296,0.0766261112056184
294,0.0815640187706968
292,0.0870489607938742
290,0.0935214413826274
288,0.100659193046836
286,0.108445260552078
284,0.11583028933784
282,0.122487948933734
280,0.128390044555824
278,0.133415310109858
276,0.137228724351448
274,0.140111137212946
272,0.14157086631923
270,0.141807403649905
268,0.140609558373351
266,0.138414348538778
264,0.135352667595295
262,0.131658739334432
260,0.127934635287165
258,0.124332497712071
256,0.120982319151489
254,0.118632744893249
252,0.117300446508071
250,0.117404878375466
248,0.119154867789666
246,0.123207373892518
244,0.129592501010755
242,0.138766746208172
240,0.150841943515798
238,0.166721427303152
236,0.183760840498775
234,0.204555216611749
232,0.227853747842173
230,0.254213970786194
228,0.283771540993987
226,0.314018781349943
224,0.349574483719379
222,0.388224962279254
220,0.434680173829508
218,0.486876796786843
216,0.54429622963312
214,0.604278444420021
212,0.657697342364376
210,0.696611796055274
208,0.716799815196384
206,0.715263964201627
204,0.700325094555193
202,0.674174517683883
200,0.644725958263839
