790,0.00124311295939548
788,0.000972832907895291
786,0.000628606775808034
784,0.000587794939742461
782,0.000729592866887594
780,0.000598204895187089
778,0.000601098186671066
776,0.000532440938404481
774,0.000437109307137232
772,0.00048447708535079
770,0.000416288753436904
768,0.000509701296516935
766,0.000567646775747755
764,0.000477520531973621
762,0.000397640914261071
760,0.000453826235293414
758,0.000462154062361674
756,0.000480544821358902
754,0.000393091908556003
752,0.00043975650203019
750,0.000295044899901799
748,0.000244622062473614
746,0.000293522399537264
744,0.00029361903621967
742,0.00029984443776789
740,0.000307838107467902
738,0.000399820835744459
736,0.000436130653370953
734,0.000380549277125027
732,0.000438156606658097
730,0.000489727398867569
728,0.000419067371122621
726,0.000432551656657097
724,0.000365618998939247
722,0.000408529684055917
720,0.000374835147259969
718,0.000452648974498365
716,0.000501428988954149
714,0.00050105885093099
712,0.000448176783333024
710,0.000332183673148544
708,0.000235765583467273
706,0.000221537029645661
704,0.00026705740057746
702,0.000284685255370874
700,0.000353707519496619
698,0.000380251945388594
696,0.000533979568519641
694,0.000479235919926896
692,0.000515465371666606
690,0.000414476352693094
688,0.000412568408872516
686,0.000452504083750991
684,0.000512702957887451
682,0.00036942312516435
680,0.000304308159205743
678,0.000345681404484106
676,0.000461042471871402
674,0.00045279366339426
672,0.000420703650654281
670,0.00051154143522186
668,0.000442272223727672
666,0.000493272413863417
664,0.000465337525019526
662,0.000493178536235531
660,0.000462910683746869
658,0.000424978755038162
656,0.000371831170293071
654,0.000432378950534097
652,0.000374759756564924
650,0.000415125367803217
648,0.000398151564372631
646,0.000437849583545525
644,0.00034906535990389
642,0.000404695353657561
640,0.000438871940498895
638,0.00037031787905667
636,0.000405265672806833
634,0.00044453950001686
632,0.00041175924656115
630,0.000370724298391551
628,0.000500925134234101
626,0.000392205048510195
624,0.00045864120323386
622,0.00042383986576515
620,0.000503279027557418
618,0.00047610869493246
616,0.000431896933846006
614,0.000464893871273593
612,0.00047816377546102
610,0.000445234538149188
608,0.000460568976946186
606,0.000539099937818743
604,0.000498766080033347
602,0.000500504018215767
600,0.000532332887444856
598,0.000498531035457855
596,0.000504403461395831
594,0.000509561834893409
592,0.000481725795607046
590,0.000539184879465179
588,0.000521234177707014
586,0.000560516324282907
584,0.00055464590992391
582,0.000518817177458086
580,0.000554383765983781
578,0.000589860297624269
576,0.000576439002344565
574,0.000579400057821644
572,0.000560934820259493
570,0.000609062297698627
568,0.000641405590756472
566,0.00063229104566864
564,0.000687299260119553
562,0.00065247378820249
560,0.000686674091589918
558,0.000654338163243811
556,0.000692017367684963
554,0.000749708411702686
552,0.000738877566507119
550,0.000729262237597473
548,0.000716407392881184
546,0.000747867289313705
544,0.000729775931604673
542,0.000755071752906765
540,0.000770397514613313
538,0.000810290841628209
536,0.000777780825221405
534,0.000807136899544106
532,0.000782728348115477
530,0.000825631747960907
528,0.000827875130977428
526,0.000847295224005926
524,0.000846854958389733
522,0.000905341449573476
520,0.000886445051331061
518,0.000883141728658107
516,0.000887864517402803
514,0.000923851391793036
512,0.000936317380793106
510,0.00102764285503706
508,0.00110135210562482
506,0.00114564945590094
504,0.00116415502333806
502,0.00122137359610439
500,0.00125238398716049
498,0.00124715740980801
496,0.00127631634817639
494,0.00125180118557781
492,0.00126064506743478
490,0.00126739952488126
488,0.00130381128771535
486,0.00135717941198671
484,0.00141822166217434
482,0.00142489706053474
480,0.00149007747528305
478,0.00145752360412146
476,0.00146709563079616
474,0.00145595080174165
472,0.00150171764187403
470,0.00152077145697948
468,0.0015774503012906
466,0.00165407244264833
464,0.00162405036210203
462,0.00165174944298866
460,0.0016881725432354
458,0.00171754833784851
456,0.00174127325369506
454,0.00178062760551656
452,0.00176192429449577
450,0.00186343338270123
448,0.00190538289147739
446,0.00191842450250406
444,0.00198752293623185
442,0.00205353012260168
440,0.00218556856789589
438,0.002241441770747
436,0.0023475667525648
434,0.00242773214874552
432,0.00251757486792271
430,0.00257206338338041
428,0.0026520455348527
426,0.00275063107833334
424,0.00279781417900903
422,0.00280262422194206
420,0.00290864228903046
418,0.0029548705172386
416,0.00298173820728058
414,0.00307405395877099
412,0.0032617846177069
410,0.00334295556046764
408,0.00349800487236325
406,0.00364877111367752
404,0.0037569168088041
402,0.00391363780863077
400,0.00411355524138106
398,0.00417839864953007
396,0.00432827309376836
394,0.00452111140019468
392,0.00464553273649236
390,0.00482837674109717
388,0.00493489728027258
386,0.00511233158530561
384,0.00526008464719596
382,0.00546445261205806
380,0.00563942454678554
378,0.00581093288612873
376,0.006017113751013
374,0.00622988256726618
372,0.00647857211651161
370,0.00668849225651191
368,0.00698757828500125
366,0.0072996223148542
364,0.00771542074170125
362,0.0080565290550272
360,0.00828845878064903
358,0.00853171269086389
356,0.00873536208047201
354,0.00904806983350598
352,0.00937527829843469
350,0.00971260894049374
348,0.0100344018502691
346,0.0104057678660749
344,0.0107584406766982
342,0.011121068840209
340,0.0114723092363221
338,0.0118988037537048
336,0.0123324373653575
334,0.0127651310688934
332,0.0132187470954086
330,0.0136853817013494
328,0.0141567927625711
326,0.0146275696041087
324,0.0151994031929315
322,0.0157880157869088
320,0.0164100609363903
318,0.0170274107200579
316,0.0176697650021533
314,0.0184138200746362
312,0.0191701171372887
310,0.0199102160522549
308,0.0206988822635739
306,0.0216777406418396
304,0.0225449103660119
302,0.0235711082493359
300,0.024710177998401
298,0.0259219343120683
296,0.0272557328448729
294,0.0286778744638516
292,0.0302816140798281
290,0.0318842535411043
288,0.0336735219485563
286,0.0354904786572331
284,0.0372299056045135
282,0.0391943475655582
280,0.0411006118487302
278,0.0429422701508294
276,0.0448417948346505
274,0.046808384462446
272,0.0486573278853981
270,0.050573491151374
268,0.0524022909152988
266,0.0541194281525412
264,0.0557515898295964
262,0.0571851359071661
260,0.0587851395914807
258,0.0602253500475034
256,0.0616210673195516
254,0.0630737853682341
252,0.0646639687330557
250,0.0663491528259035
248,0.0679910633650891
246,0.0699568579548824
244,0.0721307230518099
242,0.0744256478925438
240,0.0772721690047304
