790,0.00138515260614079
788,0.0011746565323245
786,0.00113646707666841
784,0.00115285422313014
782,0.00101715405268588
780,0.00101748684298656
778,0.0012100107860472
776,0.000966957152714502
774,0.00102554173820254
772,0.000764731794393812
770,0.00068212615112412
768,0.000939937218509414
766,0.00107453175258697
764,0.00115209700124955
762,0.00107207257317954
760,0.000973256278222903
758,0.000950059105086666
756,0.000977370946963265
754,0.000946119305914309
752,0.000892452160182946
750,0.000831406110925575
748,0.000683984892534461
746,0.000731715825141875
744,0.000809641605797794
742,0.000790907748409287
740,0.000829126847634121
738,0.000801195970858799
736,0.000951876810943856
734,0.0010232034854009
732,0.00094002662483964
730,0.000934561573796349
728,0.000806716862502053
726,0.00077643850291455
724,0.000762273390848654
722,0.000748515531294476
720,0.000876633772321148
718,0.00101055280578797
716,0.00111709869728796
714,0.00104616332263916
712,0.00104313123731681
710,0.000991283607021007
708,0.000939575904454768
706,0.000814093872055174
704,0.000854765346242552
702,0.000876508003485624
700,0.000725287025714614
698,0.000701536927478923
696,0.000778253115251451
694,0.000776018234146206
692,0.000854779179368276
690,0.000819097939331958
688,0.000867246161223983
686,0.000769592519593296
684,0.000868809000798128
682,0.000865485702802958
680,0.000869210650634921
678,0.000859318134554688
676,0.000913816639102898
674,0.000903988335604299
672,0.000972837145503721
670,0.000933289001885357
668,0.000926401348316753
666,0.000981679136729163
664,0.00103231330135791
662,0.000970537543527951
660,0.00108634522021577
658,0.00110216507983152
656,0.00109866725201741
654,0.0010692145961534
652,0.00105887188896894
650,0.00105964230424537
648,0.00116892497318893
646,0.00115422885169787
644,0.00122065056863568
642,0.00123360773491675
640,0.00122471925093556
638,0.00131662027823165
636,0.00131925406155961
634,0.00127894378796473
632,0.00137046487434205
630,0.00129347831168925
628,0.00138835567991977
626,0.00139462209798584
624,0.00143200053508245
622,0.00149844656346784
620,0.00148102843018241
618,0.00146339303941543
616,0.0015249042787513
614,0.0015962846307368
612,0.00168689814212427
610,0.00168009226306022
608,0.00174790602431927
606,0.00170798538559106
604,0.00173588991732552
602,0.00179739146939797
600,0.00183073505331114
598,0.00186058770308276
596,0.00189671979003656
594,0.00198470812320584
592,0.00195923986926215
590,0.00203882108490425
588,0.00205584678827051
586,0.00215126853516498
584,0.00219604298849708
582,0.00220495588070652
580,0.00230917468962607
578,0.00237919537286833
576,0.00246704100718039
574,0.00248904506748409
572,0.00258841788825664
570,0.00260094931427954
568,0.00265620914829706
566,0.0027189419393737
564,0.00279347943026091
562,0.00284756448219624
560,0.00287572847195863
558,0.00299684246656632
556,0.00307617160347656
554,0.0031300068880685
552,0.00318692755821925
550,0.00329603010203271
548,0.00336402892684174
546,0.0035174836932468
544,0.00359186936204131
542,0.00363023187892186
540,0.00373944818696909
538,0.00376773974343965
536,0.00381278866613066
534,0.00390339106247094
532,0.00394834376752328
530,0.0040774148233751
528,0.00413104204233708
526,0.00424717962848899
524,0.00431080899892227
522,0.00442405768995799
520,0.00453777755243535
518,0.00465155046052142
516,0.00474743163105771
514,0.00486129504757371
512,0.00502568524612616
510,0.00513119991979698
508,0.00529216573620256
506,0.00547983748710804
504,0.0056128187907679
502,0.00577657372443987
500,0.00586004401029665
498,0.00606910892367848
496,0.00620736788555918
494,0.00634196931599358
492,0.00651490178534037
490,0.00662997837693096
488,0.00677920865100616
486,0.00692491183329466
484,0.00711951825083616
482,0.00736227841834447
480,0.00751467514237952
478,0.0076852874777114
476,0.00788936016130498
474,0.00806015719107874
472,0.00834862053267715
470,0.00857709379843914
468,0.00886266816320302
466,0.00903694130634091
464,0.00926770824944544
462,0.00956343053254364
460,0.00979712151693475
458,0.0100709425958376
456,0.0103153206358226
454,0.0105519982787526
452,0.0108228685862304
450,0.011122257570007
448,0.0114015264223324
446,0.01171914543541
444,0.0120345025075396
442,0.0124430267832487
440,0.0128117325379348
438,0.0132794144016853
436,0.0136998274104653
434,0.0141410277498666
432,0.0146292832426471
430,0.0151547666896033
428,0.0156674562021905
426,0.0161157915557615
424,0.0166027999745179
422,0.0170634233685561
420,0.017695875472691
418,0.0182081926643342
416,0.0188029000190801
414,0.0194011578248975
412,0.0200557446886751
410,0.020682146076831
408,0.0214656199096815
406,0.0221862661724872
404,0.0230083827844224
402,0.0238638219992225
400,0.0246813105034911
398,0.0255794500811178
396,0.0264398937067326
394,0.0273121703663397
392,0.0283010567528449
390,0.0292615496333582
388,0.0302570109727964
386,0.0313108411220292
384,0.0324583164529363
382,0.0335942968602594
380,0.0347594333856539
378,0.0359964969692509
376,0.0373054873881668
374,0.0386528559089477
372,0.0400939828127503
370,0.0416382401162496
368,0.0432120745118225
366,0.044868415111077
364,0.0465033344563573
362,0.0483199436077931
360,0.0501057608007126
358,0.0520422503639986
356,0.0539486003180302
354,0.0559275049003954
352,0.0580340357208802
350,0.0601228603368382
348,0.0623617497538395
346,0.0647682569796373
344,0.0672387646193963
342,0.0695755169917123
340,0.0720603236161953
338,0.0747322124469023
336,0.0773782392034726
334,0.0801759073637691
332,0.0830290271222886
330,0.0859376833497616
328,0.0890117870173837
326,0.0921431040565816
324,0.0952838528646864
322,0.0987319598454426
320,0.102337718112095
318,0.105847475558228
316,0.109662230983491
314,0.113483009673237
312,0.117444462932995
310,0.121527538799345
308,0.125775307676043
306,0.130072118277048
304,0.134519008733232
302,0.139420411791044
300,0.144320741213908
298,0.149364998253404
296,0.154780213153854
294,0.160665245389258
292,0.16652881719594
290,0.17286598950115
288,0.179175112411557
286,0.185788011429962
284,0.192707859577248
282,0.199415314337606
280,0.20643609799378
278,0.213451701512927
276,0.220626085144356
274,0.228118596744997
272,0.235392116537772
270,0.242700474277079
268,0.250024137226014
266,0.257385624186816
264,0.264488885113002
262,0.271309789573028
260,0.278143902997346
258,0.28434965401059
256,0.29045586159713
254,0.296576974977683
252,0.302548268573173
250,0.308530252400917
248,0.314699364947267
246,0.321384624623884
244,0.328664697194679
242,0.336732894818129
240,0.345699890081644
