790,0.00101078031480513
788,0.00102344253259336
786,0.000998823319172989
784,0.00101182755068606
782,0.00109287221955088
780,0.000947414417775382
778,0.000925141135309959
776,0.00113530626254619
774,0.00103436552351055
772,0.000977946488736517
770,0.00100789893972544
768,0.00109748351783077
766,0.00103261661732885
764,0.000950222954218378
762,0.000972250231304951
760,0.000923847601693254
758,0.000965040226234703
756,0.00106861312461446
754,0.00103565499151708
752,0.00102094970780922
750,0.00103725940656128
748,0.000938152456392994
746,0.0009751064667212
744,0.000995718064191016
742,0.000987964165093453
740,0.00098478549990321
738,0.00104967538522322
736,0.00110212036314529
734,0.00100489985230969
732,0.00102233985535648
730,0.00104526653891177
728,0.00100899453934422
726,0.0010412204810185
724,0.000952868412039059
722,0.000992503440675845
720,0.000969389502263556
718,0.000988751516278461
716,0.00103950930264045
714,0.0010397047613239
712,0.000993982750899309
710,0.00088796657996134
708,0.000886869962105542
706,0.000776128860034237
704,0.000883981588940557
702,0.000900971263880862
700,0.00103695196851467
698,0.00103308659947602
696,0.00134663325806463
694,0.00117255422535188
692,0.00123941190142852
690,0.0010681735235187
688,0.00109497827425532
686,0.00102972269102355
684,0.00105178358710364
682,0.00102901596482487
680,0.000998451714246775
678,0.00097171003667915
676,0.00106973000608982
674,0.00110980700185724
672,0.00100532814903374
670,0.00106302962833498
668,0.00106492043374288
666,0.00113459217672097
664,0.00106269583353348
662,0.00116439023649234
660,0.00116516850208631
658,0.00118328069781515
656,0.00108310640714663
654,0.00117342907558112
652,0.00105621374074584
650,0.00105607551811415
648,0.00113200633936554
646,0.00118145731182019
644,0.0011331835674798
642,0.00115187355408723
640,0.00116067124746212
638,0.00115804435240648
636,0.00120728925550344
634,0.00129203001765392
632,0.00118416163300453
630,0.00119562788400859
628,0.00134040379610784
626,0.00126406141640883
624,0.00136608082299129
622,0.00131528381483476
620,0.00138051105074376
618,0.00142965988092302
616,0.00137949994857036
614,0.00138521820077408
612,0.00139853515763828
610,0.0014099055063535
608,0.00145488768569839
606,0.0014261208295152
604,0.00143509601741594
602,0.00147703832591549
600,0.00150381828860019
598,0.00150287207312395
596,0.00152328709706535
594,0.00154265899676436
592,0.00157147328220331
590,0.00165055794460755
588,0.00167444749338157
586,0.00170983199139531
584,0.00172543136459711
582,0.00171756794950149
580,0.0017662483487836
578,0.00177844262068038
576,0.0018594425402323
574,0.00185700619610699
572,0.0018384929006309
570,0.00189601813761821
568,0.00196358210801849
566,0.00198592576112537
564,0.00204780538486967
562,0.00205703658200215
560,0.00208839378841583
558,0.00214006861643085
556,0.00218408268038679
554,0.00221352554506992
552,0.00227314265750557
550,0.00225493215553646
548,0.00231424306477167
546,0.00236520011261933
544,0.00241427324935359
542,0.00248455056177764
540,0.00250158832636025
538,0.00258367770745557
536,0.00258990052874447
534,0.00272502885039925
532,0.0027133247855766
530,0.00274153971216033
528,0.00282087475865092
526,0.00288243540309423
524,0.00294182667131035
522,0.00297248382583908
520,0.00305594422449275
518,0.00311461638306351
516,0.00321746810241703
514,0.00325953015630584
512,0.00331426578005684
510,0.0033758623139722
508,0.00348066340840019
506,0.00355271877604217
504,0.00359959428183488
502,0.00364694579122803
500,0.00375679399529107
498,0.00382413309531993
496,0.00395764864287239
494,0.00405648391195114
492,0.00415626632916168
490,0.00423181337014954
488,0.00435710460880239
486,0.00442136790612563
484,0.0045551228007583
482,0.0046119136609194
480,0.00473646462686714
478,0.00481891618584697
476,0.00495828637241662
474,0.00508088675698706
472,0.00519740838154814
470,0.00538137140390656
468,0.00550876273644275
466,0.00568267121620986
464,0.00577885048826858
462,0.00592834785916189
460,0.00603280489171184
458,0.0062432612103654
456,0.00637589649596439
454,0.0065426150978935
452,0.0066844185990777
450,0.00691433836379726
448,0.007094010503959
446,0.00729596395752997
444,0.00756778199562966
442,0.00782004732607596
440,0.00808559243532176
438,0.00839125795584376
436,0.00868430166995033
434,0.00901242680911585
432,0.00934302665013242
430,0.00962048873583051
428,0.00994668412308563
426,0.0102296885701341
424,0.0105517503438776
422,0.0108473147116397
420,0.0111599990697976
418,0.0115370120717927
416,0.0118524332237067
414,0.01228264947483
412,0.012741439664606
410,0.0131712143010996
408,0.013715823668327
406,0.0141517698245646
404,0.0146632275555357
402,0.0151671760127629
400,0.0158071762627502
398,0.0163839418968938
396,0.0169769554553904
394,0.0176140897938058
392,0.0182496338185054
390,0.0189222421194963
388,0.0196064489270735
386,0.0203077595700814
384,0.0210875340449733
382,0.0218396247265408
380,0.0226962455348033
378,0.0234731141483511
376,0.0243368201274564
374,0.0252610509588145
372,0.0262121182456518
370,0.0272002749521124
368,0.0282992189879516
366,0.029385696272061
364,0.0304846716865475
362,0.0316994323858231
360,0.0328652318509108
358,0.0341514672996442
356,0.0354090377319018
354,0.036695085410131
352,0.0381611814700358
350,0.039551780940742
348,0.0410968907734629
346,0.0426936474866529
344,0.0443604523296762
342,0.0460668484990473
340,0.0477080808652718
338,0.0495665503058268
336,0.0514278240670407
334,0.0533825643261311
332,0.0553881811337605
330,0.0574533964305363
328,0.0596521066924651
326,0.0618493964287201
324,0.0642119435779558
322,0.0666693542256613
320,0.0693566686509912
318,0.0719614987803623
316,0.0748652040541207
314,0.0777184425077218
312,0.0807653331671361
310,0.0838370719948569
308,0.0871946483352504
306,0.0907526407874301
304,0.0942392863274615
302,0.0982523545577551
300,0.102277790216124
298,0.106572440066355
296,0.111202086104451
294,0.116209901634477
292,0.121313494589029
290,0.126841497382273
288,0.132640879510454
286,0.138703979535389
284,0.14500560558485
282,0.151381848904036
280,0.157824847337071
278,0.164189099063902
276,0.17064234292973
274,0.177582196454586
272,0.184173251408944
270,0.190750086552686
268,0.19727445558272
266,0.203680503684048
264,0.209728741416958
262,0.215479119801283
260,0.221145697250291
258,0.226209263760806
256,0.231168570987254
254,0.235825563144964
252,0.240642148099445
250,0.245325131778271
248,0.250173594956856
246,0.255388740242025
244,0.261279236671541
242,0.267647514449465
240,0.275215577534731
