wavelength,KW123Feb2401s_1_0.1s,KW123Feb241s_1_1s,KWB23Feb2401s_1_0.1s,PosT25062024_1_0.1s,PreT25062024_1_0.1s
200,0.470533387778628,0.468631915649762,0.0242790542035347,0.644725958263839,0.711349025812542
202,0.430988224231373,0.428959149220741,0.020278463937247,0.674174517683883,0.731192105051574
204,0.400451327550173,0.399637535840889,0.0184638512713081,0.700325094555193,0.756040751427649
206,0.377629990381402,0.374943987189993,0.0156169987071779,0.715263964201627,0.76818852001934
208,0.35545447731263,0.352681535105614,0.0138873455476506,0.716799815196384,0.764514806374532
210,0.332549039722168,0.329770636414103,0.0125957945955588,0.696611796055274,0.738753457118487
212,0.307829859523078,0.305114046691101,0.0110347732088928,0.657697342364376,0.697310971850604
214,0.28062452294918,0.278464075365433,0.010129241115845,0.604278444420021,0.640722154128442
216,0.25016575562589,0.248201562238032,0.00919814549236507,0.54429622963312,0.578547536448765
218,0.218416456717117,0.2163437861575,0.00795230626314345,0.486876796786843,0.516896544703993
220,0.187264095374069,0.185702590692082,0.00781205676334409,0.434680173829508,0.461599238482664
222,0.156899365841966,0.156980667186926,0.00696630494562832,0.388224962279254,0.412201404271326
224,0.131261225870015,0.130533843309282,0.00663188984023192,0.349574483719379,0.371034375366175
226,0.109596537440958,0.108751777362184,0.00629527784936073,0.314018781349943,0.332978427220491
228,0.0903784865847256,0.089678631399788,0.00593412341308215,0.283771540993987,0.300478139399776
230,0.0749025710347614,0.073964466918223,0.00538038610638505,0.254213970786194,0.269049499088356
232,0.063192234517255,0.0624720781782089,0.00509255549632823,0.227853747842173,0.241087652577305
234,0.0548836470400785,0.054372798977281,0.00474295213845727,0.204555216611749,0.216020282137048
236,0.0487031597309165,0.0484256214197506,0.0047256217700519,0.183760840498775,0.193328987429699
238,0.0445465594224735,0.0441749667004514,0.00456533742471985,0.166721427303152,0.175568532320426
240,0.0413392636433915,0.0407902037222823,0.00433671867312143,0.150841943515798,0.159293054518653
242,0.0388786260031624,0.0384933841472358,0.00407016317687792,0.138766746208172,0.146530160330644
244,0.0373029268973593,0.0369236194847056,0.00395686255433979,0.129592501010755,0.137215118699554
246,0.0359699581977952,0.0355946365369471,0.00405136052375261,0.123207373892518,0.130355039609795
248,0.0347647209401129,0.0344871691732641,0.00386976067946976,0.119154867789666,0.125984537311798
250,0.0338851305557988,0.0335961293125201,0.00389906387995627,0.117404878375466,0.123778055536685
252,0.0330655665420601,0.0327259897411401,0.00380783766550048,0.117300446508071,0.123336587522156
254,0.0323623807792384,0.0319274607650154,0.00368171639595076,0.118632744893249,0.124387903301621
256,0.0317491134933033,0.0313023674471382,0.00367232157444267,0.120982319151489,0.126518723087507
258,0.031123494569737,0.0306694364319724,0.00364267824500442,0.124332497712071,0.129557085344303
260,0.0304970978752318,0.0300144672254092,0.00360144540534559,0.127934635287165,0.132967831294146
262,0.0297722530157497,0.0293791091618334,0.0034697907057599,0.131658739334432,0.136528940748319
264,0.029255409267914,0.0287489700158473,0.00357210004965361,0.135352667595295,0.139945670291278
266,0.0284088197005825,0.0279748595845418,0.00338917931305695,0.138414348538778,0.142813591400307
268,0.027589654749831,0.0272361598482406,0.00333231824790546,0.140609558373351,0.144929855922018
270,0.0269188150956791,0.0264467076805673,0.00345343280035705,0.141807403649905,0.146045711277548
272,0.0260773731189164,0.0255989597904113,0.00331465570038049,0.14157086631923,0.145719336210614
274,0.0251860016331445,0.0247707164569175,0.00317598255602804,0.140111137212946,0.144176999675651
276,0.0243351469903103,0.0238647440922752,0.0032013818792928,0.137228724351448,0.141153141762111
278,0.0235863964151632,0.0231044979331433,0.00322396182662497,0.133415310109858,0.137294608101628
280,0.02264092318327,0.0223115096841106,0.00310823610434904,0.128390044555824,0.132239115213333
282,0.0219068100413687,0.0215227626123124,0.00320641960934596,0.122487948933734,0.126234527057295
284,0.021175309388925,0.020861951780285,0.00320610816517901,0.11583028933784,0.119392168073698
286,0.0203202431124694,0.0199362257746807,0.0031608123537349,0.108445260552078,0.111831441998291
288,0.0195348575781591,0.0190655130102657,0.00315030533873509,0.100659193046836,0.104033555793678
290,0.0188003897966912,0.0184081650243823,0.00313177188204039,0.0935214413826274,0.0967343825085088
292,0.0180353705207608,0.0178455130288751,0.00306772639198659,0.0870489607938742,0.0901313536650712
294,0.0173406677406795,0.0171341095176177,0.00303807278713965,0.0815640187706968,0.0845828663352596
296,0.0166708470745383,0.0164692606395448,0.0029963117795637,0.0766261112056184,0.0795539175908362
298,0.0161464746569129,0.0158249418876817,0.00298738185598526,0.07270533962388,0.0755233087375108
300,0.0155090826963086,0.0152574409960865,0.00289498207865554,0.0692841065450976,0.0719554006910203
302,0.0149260016239079,0.0147542660959622,0.00285404975867617,0.0662280641761067,0.0688801926149527
304,0.0145036360279605,0.0141612002866073,0.00293904502237262,0.0634236666276692,0.0660250356271256
306,0.0139108113989545,0.0137420297819394,0.00285486101455329,0.0607992783518607,0.0632573068164171
308,0.0134150439836529,0.013209287730689,0.0028751042556715,0.0582879341168238,0.060763617959366
310,0.0129933678046692,0.0127429233598471,0.00281713062987471,0.0559202522787589,0.0581828446306717
312,0.0126233432644912,0.0123254144346077,0.00279128372131506,0.0536835256057258,0.0559487786205981
314,0.0121185631062485,0.011909395722577,0.00276257578899209,0.0515811387042463,0.0537607398090997
316,0.0117470222982894,0.0114281937060615,0.0026904876793089,0.0496246427648384,0.0517704893472603
318,0.0112715309382394,0.01108615894098,0.00265237243066149,0.0477431367884783,0.0499109989341198
320,0.0109506448751786,0.0107157537470607,0.00268380927719866,0.0462000272109284,0.0482771321413103
322,0.0105070404491399,0.0103029701755006,0.00258476060234441,0.0447577975152126,0.0467787771277522
324,0.0101580426249571,0.00994139223507143,0.00256448581664056,0.0434291894415546,0.0454254725885585
326,0.00980296080765625,0.0096208907605805,0.00255692094949312,0.0422539119922874,0.04419086915144
328,0.00952998387131047,0.00933025873288923,0.00254487296820449,0.041251006978795,0.0431387119231905
330,0.00922250408434597,0.00902732713349298,0.00254679722852474,0.0403362990347763,0.042172498196755
332,0.00889847522203024,0.0087529902602467,0.00253283966330288,0.0394023427698687,0.0412237205962294
334,0.00864254414282854,0.0085020091590831,0.00250680109219317,0.0385965404687117,0.0402739983427165
336,0.00840483305021457,0.00830350999547518,0.00255689373653992,0.0378096763872564,0.0394834260035779
338,0.00816014005390406,0.00802236726952064,0.00250544024798486,0.0369860637469449,0.0386119834833832
340,0.00785682628791749,0.00776975625700214,0.00253135454902458,0.0361540979329097,0.0377304135895625
342,0.00763893679804876,0.00754369168529101,0.00248174713983308,0.0353539576927015,0.0369560918373787
344,0.00741284205921585,0.00733197643241226,0.00246107020554712,0.0345723643440862,0.0360992955243689
346,0.00718936456075775,0.0071076087443287,0.00249021570177106,0.0337693078718877,0.0353530856018893
348,0.00691676140672545,0.00688302112843417,0.00245982465727465,0.0329668674325972,0.0344526250839324
350,0.00670340965563297,0.0066933432510524,0.00238654935144975,0.032142693551248,0.0335869629239481
352,0.006635743727941,0.00648172042181908,0.00250699137205759,0.0314523834464902,0.0329499323286333
354,0.00633783284561956,0.00626641322095351,0.00241473770301282,0.0305545296102901,0.0320300369302505
356,0.00613467789639402,0.00604325196013242,0.00240226048465619,0.0297847470029055,0.0311906005902017
358,0.00596422112066889,0.00592743634012347,0.0023511045570186,0.0289932626403386,0.0304036746105129
360,0.00580189504831115,0.0057304910956511,0.002378191288619,0.028182395811173,0.0295621467246607
362,0.00559085311441691,0.00553077338661797,0.00230498095350536,0.0272784298687697,0.0287073343686906
364,0.00545672343624709,0.0053704490124018,0.00228903675664225,0.0264672724771264,0.0278440965716454
366,0.00526646649420362,0.00522720473140212,0.00226693821103372,0.0256290861338544,0.026953596756694
368,0.00505929749164934,0.00509281502901261,0.00222300492922205,0.0247202848991213,0.026068980699232
370,0.00496253764556108,0.00485320473904447,0.00222107729894964,0.0238957765674822,0.0252224552341782
372,0.00481446697231792,0.00473169538446341,0.00216799379574445,0.0230355031768178,0.0243516862086315
374,0.00459778895530148,0.0046089613562564,0.00213778134888775,0.0221966997543207,0.023530897845399
376,0.00443916079457631,0.00446720234956612,0.00215720129559437,0.021347206492414,0.0226787191761129
378,0.00434560019129641,0.00435909488355408,0.00208467414497566,0.0205551829550451,0.0218516989302762
380,0.00424050437409264,0.00420294181741916,0.00212306540522616,0.0198515408505502,0.0211896795335567
382,0.0040526696438607,0.00407119973622306,0.00203138264855191,0.0190791123684453,0.0203899180885809
384,0.00394613284549674,0.00394463267093831,0.00206000962836171,0.0184072081599882,0.0197034647170118
386,0.00388501363867878,0.00382674033682903,0.00205784512616586,0.0177047037055676,0.0189776040030211
388,0.00372784821825999,0.00373264068550733,0.00202491904439864,0.0170509353813782,0.0183308787888185
390,0.00361359485956202,0.00367475029350499,0.00202126953313373,0.0164683453409934,0.017721364026946
392,0.00350633392359876,0.00357690957668095,0.00195791579849192,0.0158691912963665,0.0171101636459355
394,0.00343619705043927,0.0034399557620124,0.00198481579535645,0.0153655284679899,0.0165565284227021
396,0.00330950648879109,0.00336419815415144,0.0019697139279251,0.0148454902803028,0.0160809600071351
398,0.00322468353304549,0.00324837988515638,0.00191331374757387,0.0143333904841253,0.0155346456439972
400,0.00312219876976111,0.00315264034011761,0.0018764568130182,0.01388210721226,0.0151177219045974
402,0.00305810456817804,0.00308322846422553,0.00180886419993057,0.0135512648487296,0.0147038104854831
404,0.0029549658677503,0.00297234700683299,0.00180760497180665,0.0130750326991727,0.0143310953721693
406,0.00290074169687787,0.00286580383991453,0.00177716553955606,0.0127353899075108,0.0139476489797435
408,0.00276093665570973,0.0027943502884298,0.00178177176634444,0.0124418045336587,0.0135852996328806
410,0.00274347186902566,0.00269083725323366,0.001824482151579,0.0121694601410381,0.0134096276993481
412,0.00261900768047282,0.0026065988070633,0.00173067476214,0.0119538320071846,0.0130495572817625
414,0.00249940180140206,0.00251638464069461,0.00171389092904324,0.011599389886074,0.0127291082516708
416,0.00240057895626405,0.00246596115076329,0.00158869379903306,0.0113075523791517,0.0124287371750351
418,0.00235047771044464,0.00242300400352921,0.00172459667659985,0.0112135195843928,0.0122712236934269
420,0.00231916385218997,0.00236800451034832,0.00176749410253096,0.0109511281394414,0.0120842122381546
422,0.0021384669800141,0.00221114851007684,0.00164483021433225,0.0106419907237944,0.0119380097083218
424,0.00214113087364359,0.00218948870334314,0.00166926768374513,0.0104488487977562,0.0117914103692594
426,0.00202825099587196,0.002186133453971,0.00166912765658797,0.0102377629228582,0.0115192702585781
428,0.00212909801521478,0.00211900459088755,0.00170386654432562,0.0101287950032137,0.0114154355427882
430,0.00195530714417238,0.0020964243880389,0.0017383919448172,0.00991538108163686,0.0112436498240883
432,0.00184213420098581,0.0020448633545723,0.0016834237203967,0.00974055440217951,0.0111404982434806
434,0.0018515318397333,0.00197515579926668,0.00161220188478501,0.00961248279430025,0.0109690406585
436,0.00181240056956849,0.00194467529153448,0.0016021984372347,0.00939456612970549,0.0108133767908824
438,0.0016279808986461,0.00189318751203267,0.0014812282950127,0.00922280035234199,0.0106759218968932
440,0.00159447863076204,0.00180709156030931,0.00145765253114382,0.00906202703459394,0.0105136466331297
442,0.00152173278495178,0.00173613731278124,0.00140558794688822,0.0088759416983399,0.010382699656846
444,0.00154555039399413,0.00169637638017083,0.00146292801676229,0.00873047784415865,0.0101998502278349
446,0.00145247918372317,0.00160969667711727,0.00151769061870339,0.00863500696497115,0.0101046141166686
448,0.00130568024037487,0.00161659407177656,0.00141662323302042,0.00848672640510461,0.00982953777956752
450,0.00143668363912407,0.0015620922114427,0.0015545522081695,0.00835376138406514,0.00975393318318717
452,0.00137322991634183,0.00156335037761607,0.00153633964687104,0.00826032596997096,0.00968421214770093
454,0.00115828388718442,0.00149898489445074,0.00146348594103635,0.00803556622950346,0.00943407528390242
456,0.00135631081849192,0.00144635086974319,0.00151023291123083,0.00800571749873294,0.00930519558042926
458,0.00125699791324718,0.00144302403465466,0.00156990591297164,0.00786069534971737,0.00926382434151773
460,0.00114949833094417,0.00140615528386615,0.00145414275338053,0.00778765682161799,0.00907087043226366
462,0.0010844003345633,0.00139912958382062,0.0014036354235175,0.00764700240485282,0.0089580825746529
464,0.00109910169468467,0.00137272758663351,0.00148387479615839,0.00755685345932014,0.00882391212732285
466,0.00116834324147438,0.00136286246718328,0.00156141949930578,0.00749782606564008,0.00881051176096361
468,0.00105864145359287,0.00133214215872273,0.00152991304326479,0.00737970272137737,0.00873811374626509
470,0.00100313930175187,0.00122818333280017,0.00141494123514032,0.00720975487195392,0.00857065991969611
472,0.000963713223496773,0.00121623207506157,0.00147289725663909,0.00706190536049298,0.00842878967707156
474,0.000904135965388398,0.00115339583052723,0.00147218671471009,0.0070374417059386,0.00840484731186164
476,0.000834399020595433,0.00108820523330255,0.00130444237637998,0.00677559290080505,0.00821718560527256
478,0.000834561321572109,0.00108272496818981,0.00132929270153964,0.00675734077687033,0.00813318125376051
480,0.00086369873171583,0.00109596855495545,0.00139866916704929,0.0066147773596403,0.0081025137356839
482,0.000825407408309094,0.00107029760097794,0.00142642989119464,0.00646942841255027,0.00796533139915536
484,0.000814808685518599,0.00102508102545882,0.00140154160318753,0.00650141081048938,0.00794535752477422
486,0.000728742966185331,0.000994761635589535,0.00127510965002744,0.00624957161501188,0.00777802080410901
488,0.000711347114377778,0.000998019825106904,0.00127583552026314,0.00620455920467728,0.00771068473702075
490,0.000731651572703998,0.000962929085472904,0.00137141682916454,0.00611925642963462,0.00759240433714699
492,0.000754786464882823,0.000946631472618006,0.00130808344469294,0.00607790732408295,0.00752944528411398
494,0.000647268066321136,0.000915887585633259,0.00139266832328849,0.00592719224042141,0.00738457141197804
496,0.000616375741353031,0.000892947752165445,0.00128691560025613,0.00563962927674424,0.00732496742577752
498,0.000622904901474211,0.000893753157477852,0.0012758997317937,0.00558597670753825,0.00710009344261403
500,0.000624148311191201,0.000869349744853672,0.00125404235859081,0.0055452619312972,0.00705389905013659
502,0.000643908878257674,0.000853691972402163,0.00143018072972125,0.00550485957601761,0.00693169912962801
504,0.00060092277247333,0.000843641322981726,0.00128396159876835,0.00536246099242861,0.00677951610820518
506,0.000592488952825324,0.000800993551183539,0.0012972506636273,0.00523145640849019,0.00671910411287
508,0.000591896099562858,0.000782908585753231,0.00132682660157733,0.00511872178058796,0.00660293136663307
510,0.000440490744449593,0.000786388265339888,0.00131851702629015,0.00505558370593696,0.00646470739356308
512,0.000551139069577912,0.000791732670161073,0.00138146669619878,0.00486866227302145,0.00642111572450311
514,0.000463065043839471,0.000769888557547615,0.00118756455073834,0.00477799650208612,0.00616509176632606
516,0.000472739676423716,0.000765161111126475,0.00128299187613313,0.0046637651781324,0.00611450866549766
518,0.000491913210812755,0.000752594663062431,0.00133605373308326,0.00466600055946431,0.00605074144704164
520,0.00043958738191056,0.000691854227134025,0.00129869623944721,0.00450228142478232,0.00593859616618234
522,0.000517749149444865,0.000697426002494163,0.00124202590280358,0.0044233636584244,0.00577851417080069
524,0.000338583814885518,0.000691557237060392,0.0012446687474933,0.00430450573124346,0.0056673773424699
526,0.000393115907669186,0.000658506710081006,0.00129607234397853,0.00427694279513171,0.00552519927458445
528,0.000438627103343118,0.000644011329202167,0.00130463144948658,0.00414471193880495,0.00551631012288535
530,0.000417016646238367,0.000631950319616971,0.00124313237323223,0.00412878873521895,0.00541028308917522
532,0.000318263288705463,0.000619234692500181,0.00124241479388721,0.00392491109582993,0.00522733276547034
534,0.000404662249700861,0.0006096010568007,0.00130320868332325,0.00397091938673377,0.00526744853461555
536,0.000335590031860588,0.000621362692269339,0.00122164031060765,0.00387071219862504,0.00514338172711758
538,0.000251282957717491,0.000620088410011963,0.00118832990831206,0.00365590689005666,0.00498838360129455
540,0.000308451142691819,0.000589901483119074,0.00129728111000301,0.00373542464266228,0.0050245976109799
542,0.000366732655730816,0.000571380220571074,0.00125310597668392,0.00368049917709101,0.00498908863576534
544,0.000332890901587485,0.000539969663229051,0.00121934414457185,0.00350735895263163,0.00480171493824168
546,0.000172625658918476,0.000530132727145159,0.00117783397075305,0.0033511491888406,0.00471636844344572
548,0.000296735491695882,0.000527739835117531,0.00128471488189076,0.0034596167906714,0.00475437272657416
550,0.000287729934164283,0.000527132294766234,0.00126748153804517,0.00335605603497625,0.00461813323059915
552,0.000210211490729448,0.000496688711726192,0.00115620108105919,0.00317608593069963,0.00456896379419982
554,0.000256361243626917,0.000492850070603948,0.00121708927274662,0.00319224877708026,0.00449850689613409
556,0.000257136403358573,0.000465338742051793,0.00121786048788125,0.00315979334978723,0.00449113472871813
558,0.000223084429895455,0.000472458079148007,0.00118430996465989,0.00308152399461051,0.00437338093596461
560,0.000271146662573583,0.00044716828460924,0.00121675987499665,0.00299423470195186,0.00435367441722475
562,0.000221328308107838,0.000457934794988242,0.00125390949371417,0.00298403049353548,0.00428124032390644
564,0.000167772631302366,0.00044989038422214,0.00124769263985947,0.00288070867878728,0.00418140820761772
566,0.000248009995383221,0.000417018691708243,0.00123912237435242,0.00289502865889674,0.00418132223681671
568,0.000177143077781456,0.000407626216943312,0.00120238810397304,0.00272519420499359,0.00413779112064947
570,0.00019249483815384,0.000393981552382735,0.00124861695001518,0.00277336480063868,0.00402694606569044
572,0.00013934257451221,0.000412517367903649,0.0012241326660073,0.00271127850911006,0.00398654808105406
574,0.00014521982754699,0.000403826049451642,0.00122965166292499,0.00264448931195475,0.00400869657560706
576,0.000189706472971366,0.000419074071122426,0.00124570515928037,0.00271923970138035,0.00400073933840436
578,0.000109826965333846,0.000433507940193489,0.00117384176991132,0.00251512388786014,0.00384826104024443
580,0.000106633205315867,0.000425900175456933,0.00127119893728103,0.00256376473709322,0.00393037845723623
582,0.000122460778212238,0.000445258770095547,0.0012150495113792,0.00251891261875115,0.00384252498988625
584,0.000113882782529035,0.000404789449982194,0.00113165986333847,0.00238978315442677,0.00379556556300519
586,0.000106342916425054,0.000389138021230277,0.00125871561767207,0.00245163826796415,0.00377306232922652
588,3.11539369023854e-05,0.000364068084900139,0.00121493131009936,0.00232201306981091,0.00367538509004916
590,0.000129812859307648,0.000383376536415471,0.00128787202330897,0.00242970114165872,0.00373850206415659
