Wavelength,I1,I1 dark,R1,R1dark,XCorrect,I1c,R1c,I1c/R1c,Abs,Percent T
nm,uA,uA,uA,uA,,uA,uA,uA/uA,OD,T*100
,Abs Detector Raw,Dark Offset for Abs Detector,Ref Detector Raw,Dark Offset for Ref Detector,Linear interp,Dark subtracted Abs Detector,Corrected Ref Detector,Corrected Intensity ,-Log(T),% Transmittance
800,0.142931345940715,2.4886353870133E-4,0.209034789203801,0.0049715348664949,1.35067892074585,0.142682482402014,0.275623936132198,0.517670868518397,7.17375768954096E-4,99.8349544750069
798,0.140206722462223,,0.205121233311235,,1.34199333190918,0.139957858923521,0.268599560696475,0.52106510733157,7.46479352637309E-4,99.8282644116521
796,0.143870148274611,,0.210647594754607,,1.33337259292603,0.143621284735909,0.274242821275821,0.523701164055126,6.12644088433823E-4,99.8590329375037
794,0.156984426824809,,0.229708489453834,,1.32502686977386,0.156735563286107,0.297782503459374,0.526342419266721,7.19931373045052E-4,99.8343669983568
792,0.164051810562743,,0.239637564464514,,1.31713449954987,0.163802947024042,0.30908672345594,0.52995788752276,7.97366006703119E-4,99.8165681341935
790,0.156525407737898,,0.22858021415927,,1.30966234207153,0.156276544199196,0.292851866630099,0.533636838301561,7.75106769440735E-4,99.8216842425146
788,0.148109001330793,,0.216696581546843,,1.30193436145782,0.147860137792092,0.275652113454407,0.536401248440084,7.74884061767726E-4,99.8217354314236
786,0.146754334054102,,0.21515516424038,,1.29363858699799,0.1465054705154,0.271901653313341,0.538817873043848,9.27577430729547E-4,99.7866453288695
784,0.150957950942517,,0.221228829835007,,1.28498160839081,0.150709087403816,0.277886646714885,0.54234015626683,7.33237022063368E-4,99.8313083808656
782,0.154925977850795,,0.226945997285002,,1.27644824981689,0.154677114312094,0.283338914058149,0.545908474401611,7.84062364606859E-4,99.8196258387978
780,0.160661465384335,,0.235330158056249,,1.268270611763,0.160412601845633,0.292157071957752,0.549062874879955,7.56903253778855E-4,99.8258683704529
778,0.171482854539398,,0.250969054935898,,1.26044166088104,0.171233991000696,0.310065522768896,0.552250987054513,8.40931327788029E-4,99.806555751072
776,0.184460604312065,,0.269743616552163,,1.25292003154755,0.184211740773364,0.331738244938516,0.555292443919166,6.17882369572448E-4,99.8578284862479
774,0.201413155513857,,0.29417132908578,,1.24577045440674,0.201164291975156,0.360276559058894,0.558360756249679,6.36341705385119E-4,99.8535842001869
772,0.228226375240091,,0.332879077344197,,1.23883104324341,0.22797751170139,0.406222042935034,0.561214034704289,8.3745970344634E-4,99.8073535789693
770,0.293814497155138,,0.428028123289684,,1.23221707344055,0.293565633616436,0.521297551286566,0.563144087080237,8.63504658211812E-4,99.80136823913
768,0.391996720845768,,0.569855435955392,,1.22665858268738,0.391747857307066,0.692919685492623,0.565358244987019,6.27632791696231E-4,99.8555865856692
766,0.440680601266471,,0.638007506300745,,1.22236526012421,0.44043173772777,0.773801179890207,0.569179460013567,8.9827453216079E-4,99.7933784022025
764,0.39586385950219,,0.571581069188243,,1.2186872959137,0.395614995963489,0.690519841221489,0.572923430069249,0.00103743516543153,99.7614068124146
762,0.335303051943887,,0.484556919450525,,1.214359998703,0.335054188405185,0.582389307001442,0.575309650052273,9.03843331470837E-4,99.7920987964119
760,0.316850535843303,,0.459353933406211,,1.20898902416229,0.316601672304601,0.549343332607054,0.576327505063336,9.87961692351443E-4,99.7727719681133
758,0.326982928686116,,0.473916508116089,,1.2031888961792,0.326734065147415,0.564229384732963,0.579080200337405,9.04876137268777E-4,99.7918614787854
756,0.347179272599557,,0.502931190006988,,1.19780671596527,0.346930409060855,0.596459419207033,0.58164964436656,8.28334940927216E-4,99.8094506076087
754,0.372221891823222,,0.53863770689312,,1.1931779384613,0.37197302828452,0.636758702965264,0.584166382889331,9.61510624887553E-4,99.7788488970225
752,0.395945457402255,,0.572199402620831,,1.18890511989594,0.395696593863554,0.674380116120784,0.586756021425583,9.01125168298694E-4,99.7927233773541
750,0.419358886568953,,0.605260188926715,,1.1848680973053,0.419110023030252,0.711262875370291,0.589247713529346,9.17102811453996E-4,99.7890520822754
748,0.450349049103814,,0.649214026336533,,1.18107759952545,0.450100185565113,0.760900375337729,0.5915362906285,9.452468758248E-4,99.7825855517894
746,0.498007784570118,,0.716952183719673,,1.17750906944275,0.497758921031416,0.838363671292351,0.593726729909603,9.10647461103823E-4,99.7905353571192
744,0.552500946888995,,0.794141747925399,,1.174187541008,0.552252083350293,0.926633831908391,0.595976602983443,9.93444647622992E-4,99.7715123477046
742,0.602092209508221,,0.863281084807335,,1.17108881473541,0.601843345969519,1.0051567135163,0.598755734182098,9.35885759890654E-4,99.7847363652523
740,0.65153694808018,,0.932075884337132,,1.16803753376007,0.651288084541479,1.08289267789392,0.601433639581115,9.6637967489636E-4,99.7777302425106
738,0.734729911920121,,1.04854579964323,,1.16498303413391,0.73448104838142,1.21574631332366,0.604140058112504,9.27926091447086E-4,99.7865652180902
736,0.838854458318025,,1.19436026744437,,1.16204738616943,0.838605594779324,1.38212606783149,0.606750436373048,9.78191020604316E-4,99.7750166615433
734,0.92861413050575,,1.31791983726315,,1.15931880474091,0.928365266967048,1.52212565662109,0.609913684148713,9.67169136140435E-4,99.7775488665485
732,0.970305127653614,,1.37325706390971,,1.15665113925934,0.970056264114912,1.5826290159999,0.612939769401381,0.00101885378504555,99.7656752164152
730,0.975323844064224,,1.37852574064647,,1.15388596057892,0.975074980525523,1.58492491414364,0.615218406767473,7.95408491222925E-4,99.817018043013
728,0.97096745675253,,1.37295315155741,,1.15089321136475,0.970718593213828,1.57440075592134,0.616563851079812,6.23262927785281E-4,99.8565913359886
726,0.96947679818915,,1.37269811310628,,1.1476241350174,0.969227934650449,1.56963603129273,0.61748578353684,4.49276408314396E-4,99.8966037747299
724,0.977745537474958,,1.38746216028849,,1.14410185813904,0.977496673936256,1.58171009340511,0.617999896448722,1.94346698752138E-4,99.9552600301687
722,0.991907414859776,,1.41109808090938,,1.14027833938599,0.991658551321074,1.60337564288834,0.618481736154287,1.45325369747373E-4,99.9665431950362
720,0.997066605207813,,1.42141535992089,,1.13600122928619,0.996817741669112,1.60908192647663,0.619494710161725,1.65164163080585E-4,99.9619767766799
718,0.979153317925875,,1.39802092642062,,1.13137769699097,0.978904454387174,1.57606501241117,0.62110664641275,3.29994801339965E-4,99.9240447495823
716,0.921276220073645,,1.3162182854511,,1.12621939182281,0.921027356534943,1.47675151797304,0.623684719687391,5.20503332374705E-4,99.8802214704159
714,0.820513310014848,,1.17255112599099,,1.12039887905121,0.820264446476146,1.30815486509895,0.627039250749644,7.45387437163366E-4,99.8285154030145
712,0.696329202539872,,0.995276019887819,,1.11375534534454,0.69608033900117,1.10295691371118,0.631103835832565,7.94324355401723E-4,99.8172672180415
710,0.569666613019135,,0.816086404209783,,1.10628998279572,0.569417749480433,0.897328254851135,0.634570176969295,9.44585727856627E-4,99.7827374558699
708,0.467859425010409,,0.673483197382136,,1.09837675094604,0.467610561471707,0.734277667843469,0.636830700360332,8.74215871905715E-4,99.7989068203365
706,0.393324145462046,,0.570537749490263,,1.09038031101227,0.393075281923344,0.616682264999496,0.637403253235547,8.39080770718799E-4,99.8069810342117
704,0.338105664237375,,0.49544066116729,,1.0826700925827,0.337856800698674,0.531016254381039,0.636245685346272,8.54556305782018E-4,99.8034246019292
702,0.30341655457374,,0.449810825839363,,1.07555782794952,0.303167691035039,0.478450381585385,0.633644997900237,8.43000201945937E-4,99.8060802978467
700,0.276757190361418,,0.415270376453454,,1.0694442987442,0.276508326822717,0.438791756916524,0.630158434984729,6.66576346318285E-4,99.8466328519589
698,0.264925839700686,,0.401705102459807,,1.0649927854538,0.264676976161985,0.422518387234224,0.626427119289511,8.12108720901515E-4,99.8131797831536
696,0.266956187898139,,0.407432638447663,,1.06259047985077,0.266707324359438,0.427651337175584,0.623656004727829,6.79471304980104E-4,99.8436682757493
694,0.284737527853944,,0.435480441069965,,1.06203079223633,0.284488664315243,0.457213714720066,0.622222508109636,6.99991597812188E-4,99.8389508017922
692,0.311525555701006,,0.475978045278261,,1.06277585029602,0.311276692162305,0.500574344597827,0.621839084486825,6.87836695085348E-4,99.8417451032813
690,0.338027456840227,,0.51524504799001,,1.06392598152161,0.337778593301525,0.542893248294415,0.622182343145196,6.062908943989E-4,99.8604937630018
688,0.355144458114604,,0.540453025184206,,1.06461536884308,0.354895594575903,0.570081824323232,0.622534484408821,6.00267619427965E-4,99.8618787480956
686,0.367714935359297,,0.559241710717041,,1.0645604133606,0.367466071820596,0.590054087516907,0.622766759174542,7.85365072484339E-4,99.8193264207225
684,0.376304988120383,,0.572058860018853,,1.06376242637634,0.376056124581682,0.603246188971343,0.623387485004976,6.97291235568393E-4,99.839571583733
682,0.375076168850391,,0.570259120951337,,1.06245732307434,0.374827305311689,0.600593935478858,0.624094389186326,7.70935431059575E-4,99.8226430205783
680,0.368594781547188,,0.560670780230373,,1.06094348430634,0.368345918008486,0.589565493602754,0.624775231938312,6.24361238227214E-4,99.8563388036567
678,0.367074211179728,,0.558974068506196,,1.05921316146851,0.366825347641027,0.58680677511807,0.625121186726617,7.66596260582832E-4,99.8236403844579
676,0.375125616482029,,0.571503791051344,,1.05730748176575,0.374876752943328,0.59899879312587,0.6258389119401,6.36168384505388E-4,99.8536240503697
674,0.382116264342279,,0.582641683157718,,1.05524814128876,0.381867400803578,0.609585350262314,0.626437955963434,7.00620066159211E-4,99.8388063247666
672,0.388991940279161,,0.593407082284624,,1.05312037467957,0.38874307674046,0.619693464171755,0.627315114998074,7.29212344200863E-4,99.8322335381846
670,0.394805195565991,,0.602689984774387,,1.0509113073349,0.39455633202729,0.628149077610893,0.628125306699404,6.38229737490164E-4,99.8531501021939
668,0.401720152203399,,0.613654794911238,,1.0485315322876,0.401471288664698,0.638223591332524,0.629044889779897,7.50102746766682E-4,99.8274315306155
666,0.404835104278355,,0.618781157500617,,1.04595601558685,0.404586240739653,0.642017867219256,0.630179098429176,6.29842173789518E-4,99.855078592607
664,0.40941377247295,,0.626244411254975,,1.04322910308838,0.409164908934249,0.648129945607891,0.631300731754473,7.11699853317445E-4,99.8362592543806
662,0.413012800473706,,0.632128743506853,,1.04042720794678,0.412763936935004,0.652511423529382,0.632577334358987,6.5569988450528E-4,99.849133440231
660,0.416757206586674,,0.638243126416992,,1.03775990009308,0.416508343047972,0.657183863579228,0.633777495356532,7.03263487422009E-4,99.8381986375145
658,0.421748373253741,,0.64629894608695,,1.03528940677643,0.42149950971504,0.663959475111888,0.634827162672858,6.47643126879719E-4,99.8509857956321
656,0.431017474168852,,0.660747162276777,,1.03309750556946,0.430768610630151,0.677480164890808,0.635839442915025,5.51193872178253E-4,99.8731634263203
654,0.441886407230891,,0.677700529823781,,1.03115320205688,0.44163754369219,0.693686657266715,0.636652787055676,6.46858227882754E-4,99.8511662561553
652,0.457884095460424,,0.702606050354146,,1.02945709228516,0.457635231921723,0.718184799791681,0.63721096861764,6.74321584945609E-4,99.8448521958972
650,0.476134727101366,,0.730789494455398,,1.02793705463409,0.475885863562664,0.746095175580345,0.637835331387179,6.79394987456001E-4,99.8436858210384
648,0.487085863837392,,0.747713971011306,,1.02666783332825,0.486837000298691,0.762549767637737,0.638433084579959,6.3284452821743E-4,99.8543882792055
646,0.490894890921782,,0.753654624979267,,1.02560043334961,0.49064602738308,0.767849701661184,0.638987065205085,6.05052935845821E-4,99.8607784162353
644,0.490945026724804,,0.754371105994471,,1.02465677261353,0.490696163186103,0.767877345949952,0.639029352505582,7.94728009998352E-4,99.8171744430197
642,0.492278274094965,,0.756703042630661,,1.02378344535828,0.492029410556263,0.76961027300317,0.639322820674247,7.28426805778672E-4,99.8324141118032
640,0.502291164679955,,0.772444660914928,,1.02288675308228,0.502042301141254,0.785038093981586,0.639513298768696,6.09834931220733E-4,99.8596788601245
638,0.5121187677901,,0.787893502711108,,1.02184903621674,0.511869904251399,0.800028058274928,0.63981494018488,6.94236806676191E-4,99.8402737661395
636,0.525704047582007,,0.809050773439556,,1.02063095569611,0.525455184043306,0.820668161720221,0.640277286914467,6.86238471839125E-4,99.8421125260744
634,0.540683535132016,,0.832380386078269,,1.01923584938049,0.540434671593314,0.843324763249771,0.640838138691359,6.66138110272846E-4,99.8467336048292
632,0.555493080971277,,0.855335895935274,,1.0177036523819,0.555244217432576,0.865418916115094,0.641590109822296,6.5755683030884E-4,99.8487065086427
630,0.566100443294615,,0.871894192072723,,1.01619136333466,0.565851579755914,0.8809593169321,0.642312952346614,6.60856600771229E-4,99.8479478608254
628,0.580667145506917,,0.894468834926856,,1.01451146602631,0.580418281968216,0.902405209910678,0.643190304747539,6.36242719018346E-4,99.853606959271
626,0.594554737004159,,0.916098916017184,,1.01275491714478,0.594305873465458,0.922748735405602,0.644060349976233,6.28491179451306E-4,99.855389220214
624,0.608612384653066,,0.93819551169305,,1.01092803478241,0.608363521114364,0.943422280905095,0.644847523137482,7.13873786812218E-4,99.8357595085772
622,0.624880614263354,,0.963389325679295,,1.0092089176178,0.624631750724653,0.967243781291827,0.645785233057183,6.84742807673184E-4,99.8424563723201
620,0.637849776198837,,0.983569022253934,,1.00772297382355,0.637600912660135,0.986155170166322,0.646552319502213,6.90905612336465E-4,99.8410395797619
618,0.648502299959982,,1.00009745999307,,1.0068142414093,0.648253436421281,1.00190695341304,0.647019600186403,6.28403803708938E-4,99.85540931013
616,0.655565803960078,,1.01132082878367,,1.00664889812469,0.655316940421377,1.01304040785029,0.646881343866614,6.97286726587866E-4,99.8395726202986
614,0.663903439729985,,1.02424317370274,,1.00700271129608,0.663654576191284,1.0264093038553,0.646578878132273,6.10529679125583E-4,99.8595191131093
612,0.6695622486063,,1.03327647292201,,1.00780045986176,0.669313385067598,1.03632618945046,0.645852041452814,6.84651159997119E-4,99.8424774417337
610,0.675429939622892,,1.04249188578802,,1.00835275650024,0.675181076084191,1.04618650577682,0.645373527909205,6.27780453897231E-4,99.8555526342979
608,0.684841588144856,,1.05711789128378,,1.0085117816925,0.684592724606154,1.06110199651167,0.64517146029008,5.58361954199425E-4,99.8715150214959
606,0.694058169834102,,1.07164975768079,,1.00798010826111,0.693809306295401,1.07519043051212,0.645289696230774,6.37230815851087E-4,99.8533797748958
604,0.704257278680067,,1.08774291557547,,1.00688087940216,0.704008415141366,1.09022179999974,0.645747879139393,7.81316812338167E-4,99.8202568872635
602,0.717099481387542,,1.10738675857559,,1.00539457798004,0.71685061784884,1.10836228859978,0.646765615559201,5.72379145680414E-4,99.8682916428521
600,0.732753830079873,,1.13151782384782,,1.00393652915955,0.732504966541171,1.13098097129748,0.647672228915427,6.47446808735177E-4,99.8510309322053
598,0.747909123293241,,1.15475941311042,,1.00287997722626,0.74766025975454,1.15309924114829,0.648391945007262,6.68602989014315E-4,99.8461669170104
596,0.765637583915761,,1.18181849655942,,1.00218975543976,0.76538872037706,1.17942396872906,0.648951302220725,5.5752864587144E-4,99.8717066514809
594,0.783828979411919,,1.20987280705524,,1.00178515911102,0.783580115873218,1.20705221267267,0.649168368730466,6.79053399132518E-4,99.8437643517407
592,0.804151376181301,,1.2408501110086,,1.00154709815979,0.803902512642599,1.23779060161298,0.649465678277911,6.6737999305084E-4,99.8464480894317
590,0.823277012396383,,1.26995349986936,,1.00122630596161,0.823028148857681,1.26653321992788,0.649827525964575,5.93928045957866E-4,99.8633364832597
588,0.841496235346043,,1.29790504852477,,1.00070452690125,0.841247371807342,1.29384442010016,0.650192062305463,6.23088858823414E-4,99.8566313593769
586,0.858879256821994,,1.32440823445402,,0.999973237514496,0.858630393283293,1.31940138818198,0.650772692051212,5.77877473118469E-4,99.8670272816524
584,0.873457757129952,,1.34669219585179,,0.999053955078125,0.873208893591251,1.3404513329674,0.651429016567279,6.57470719457557E-4,99.8487263064029
582,0.888801236988076,,1.36986181245843,,0.998229086399078,0.888552373449375,1.36247317483558,0.652161370851651,6.27570320025216E-4,99.8556009495307
580,0.898934289010575,,1.38526340236271,,0.997582137584686,0.898685425471874,1.37695451166763,0.65266166591333,6.68849214083361E-4,99.8461103088254
578,0.911855855731404,,1.40494307910292,,0.997147619724274,0.911606992192702,1.39597829301707,0.653023758859807,6.12687816057809E-4,99.8590228830402
576,0.926861655537166,,1.42746573831468,,0.996688485145569,0.926612791998465,1.41778359276313,0.653564335719659,6.120549442656E-4,99.8591684018241
574,0.939324166168521,,1.44622164644286,,0.996220171451569,0.93907530262982,1.4358024332592,0.654042144571495,5.95411574632618E-4,99.8629953555771
572,0.958263368973703,,1.47520098592668,,0.9957315325737,0.958014505435001,1.46395382453914,0.654402133029425,6.32436626633586E-4,99.8544820652975
570,0.975787274848505,,1.50150147105108,,0.995352268218994,0.975538411309804,1.48957446643895,0.654910803917023,5.65222081099487E-4,99.869937460914
568,0.99243930725267,,1.52674385071096,,0.995181918144226,0.992190443713968,1.51444029226087,0.655153226432421,6.37497697225924E-4,99.8533184133077
566,1.01232845207066,,1.55648159931039,,0.995282471179962,1.01207958853196,1.5441907710003,0.655410981297568,5.8214469011245E-4,99.86604602999
564,1.02949239395764,,1.58250678231187,,0.995623111724854,1.02924353041894,1.5706305519172,0.655305940128687,6.28356875732936E-4,99.8554201000725
562,1.04865470162033,,1.61117162747321,,0.996170461177826,1.04840583808163,1.6000490869959,0.655233546647008,5.74854192716494E-4,99.8677224944397
560,1.07268721190028,,1.64724031781981,,0.99668163061142,1.07243834836158,1.63681912849614,0.655196612558469,5.59105380677013E-4,99.8713440613107
558,1.09709544086769,,1.68404366239931,,0.997178435325623,1.09684657732899,1.67433451693204,0.655094048552968,6.26376797473617E-4,99.8558753717957
556,1.1231072281783,,1.72310385816609,,0.997675478458405,1.1228583646396,1.71413848770277,0.655056970422743,6.17557487271091E-4,99.8579031868362
554,1.14932179716535,,1.76197280942679,,0.99818366765976,1.14907293362665,1.75380997632347,0.655186678795991,5.90804100157765E-4,99.864054817905
552,1.17717883440755,,1.80356408428501,,0.998678505420685,1.17692997086885,1.79621571911406,0.655227519915783,5.66150433433408E-4,99.8697239781407
550,1.20288718696596,,1.84195503414382,,0.999059557914734,1.20263832342726,1.83525592268466,0.65529733949476,5.88468137860311E-4,99.8645919633306
548,1.23419371912846,,1.88845521401172,,0.999196529388428,1.23394485558976,1.88197035536166,0.655666467898553,6.2498578274029E-4,99.8561952036657
546,1.25912458603324,,1.92494020379514,,0.99907249212265,1.25887572249454,1.91818788286394,0.656283846718382,5.96076003634483E-4,99.8628425748665
544,1.28552539616945,,1.9640709745128,,0.998806416988373,1.28527653263075,1.95676109183705,0.656838761764267,6.36679846854734E-4,99.8535064542657
542,1.31519296502063,,2.00738610648083,,0.998482644557953,1.31494410148193,1.99937619696687,0.657677181251207,6.27077212950176E-4,99.8557143277414
540,1.34134109418861,,2.04534524786968,,0.99831360578537,1.3410922306499,2.0369328385779,0.658388045619707,5.94716253048637E-4,99.863155240067
538,1.36060883855742,,2.07276519099742,,0.998360693454742,1.36035997501872,2.06440390845619,0.658960181893873,5.95015034305227E-4,99.8630865373089
