Wavelength,I1,I1 dark,R1,R1dark,XCorrect,I1c,R1c,I1c/R1c,Abs,Percent T
nm,uA,uA,uA,uA,,uA,uA,uA/uA,OD,T*100
,Abs Detector Raw,Dark Offset for Abs Detector,Ref Detector Raw,Dark Offset for Ref Detector,Linear interp,Dark subtracted Abs Detector,Corrected Ref Detector,Corrected Intensity ,-Log(T),% Transmittance
800,0.142661728098165,2.4540085217647E-4,0.208670395398799,0.00497057081620578,1.35067892074585,0.142416327245988,0.275133059223336,0.517627098859041,7.54097412660873E-4,99.8265133163193
798,0.139925279248931,,0.204698709242184,,1.34199333190918,0.139679878396754,0.268033829962296,0.521127793519208,6.94235156014139E-4,99.8402741456114
796,0.143746234319417,,0.210471600454468,,1.33337259292603,0.143500833467241,0.274009440737738,0.523707625112776,6.07286100771568E-4,99.8602649282133
794,0.156859785597584,,0.229533765257145,,1.32502686977386,0.156614384745408,0.297552266596497,0.526342435689756,7.19917822106774E-4,99.8343701134076
792,0.163606511797433,,0.238975771521296,,1.31713449954987,0.163361110945256,0.308216322922765,0.530020958644011,7.45683013107388E-4,99.8284474608718
790,0.156280829377364,,0.228252545589108,,1.30966234207153,0.156035428525187,0.292423994023436,0.533593110395319,8.10695703990011E-4,99.8135045350129
788,0.148060958270682,,0.216620983021144,,1.30193436145782,0.147815557418506,0.275554944266322,0.536428616122537,7.52726525205748E-4,99.826828427693
786,0.14676287573345,,0.215107459925385,,1.29363858699799,0.146517474881273,0.271841188303351,0.5389818805448,7.95405284713059E-4,99.8170187799882
784,0.150576567048167,,0.220676849055658,,1.28498160839081,0.150331166195991,0.277178600352126,0.542362094350035,7.15669826133739E-4,99.8353466353161
782,0.155039858198546,,0.227106628654905,,1.27644824981689,0.154794457346369,0.283545182249432,0.545925189482493,7.7076497759216E-4,99.8226821993376
780,0.160813246084412,,0.23548537350973,,1.268270611763,0.160567845232235,0.292355149832544,0.549221880730358,6.31151961047533E-4,99.8547774404676
778,0.170833591732239,,0.249962394478494,,1.26044166088104,0.170588190880062,0.308797901119171,0.552426652712996,7.02808450967496E-4,99.838303244056
776,0.18428737242494,,0.269525083418575,,1.25292003154755,0.184041971572763,0.331465648275807,0.555236937915284,6.61295811149046E-4,99.8478468827229
774,0.201880046228544,,0.294847323956126,,1.24577045440674,0.201634645376368,0.361119894481068,0.558359283046753,6.37487568052419E-4,99.853320742215
772,0.228098007244388,,0.33275913715913,,1.23883104324341,0.227852606392212,0.406074651605866,0.561110144381444,9.17862487071206E-4,99.7888775296467
770,0.294511402860666,,0.428889860346788,,1.23221707344055,0.29426600200849,0.522360586320371,0.563338830904849,7.13344956886499E-4,99.8358810762499
768,0.392684405474368,,0.570639208230092,,1.22665858268738,0.392439004622191,0.693882289040818,0.565569997707645,4.64999946040635E-4,99.8929871052809
766,0.440469198374249,,0.637479160050415,,1.22236526012421,0.440223797522073,0.773156526210069,0.569385089045297,7.41404102910228E-4,99.8294310309698
764,0.395690554754348,,0.571011899573818,,1.2186872959137,0.395445153902171,0.68982737631901,0.57325233453666,7.88186483682275E-4,99.8186779426454
762,0.334654510686712,,0.483425803732388,,1.214359998703,0.334409109834536,0.58101689602354,0.575558322181713,7.16164226820373E-4,99.8352329828571
760,0.317044090530029,,0.459283507991454,,1.20898902416229,0.316798689677853,0.549259354579808,0.576774318063656,6.51393964676363E-4,99.850123424016
758,0.326803537207341,,0.473411938110781,,1.2031888961792,0.326558136355165,0.563623451639834,0.57939061159549,6.72138465599503E-4,99.8453540990652
756,0.347460014480759,,0.502938141911257,,1.19780671596527,0.347214613628582,0.596468900990566,0.582116876591483,4.79611405235353E-4,99.8896263493588
754,0.372378230323573,,0.538379587692491,,1.1931779384613,0.372132829471397,0.636451871113117,0.584699089375853,5.65654114318163E-4,99.8698381110238
752,0.395705938665419,,0.571459806066169,,1.18890511989594,0.395460537813243,0.673501952154614,0.587170588812871,5.94386510888952E-4,99.8632310621333
750,0.419443081514906,,0.60507623201827,,1.1848680973053,0.41919768066273,0.711046052970627,0.589550675250069,6.93867680345733E-4,99.8403586248957
748,0.450310604584925,,0.648690871126221,,1.18107759952545,0.450065203732749,0.760283627055956,0.591970138138493,6.26841190080055E-4,99.8557685956165
746,0.497760747827941,,0.71615297412814,,1.17750906944275,0.497515346975764,0.837423729927893,0.59410227964116,6.36030188384429E-4,99.8536558246296
744,0.552090392386241,,0.792989468266917,,1.174187541008,0.551844991534064,0.925281971465483,0.59640737478116,6.79650054043245E-4,99.8436271816087
742,0.603086096833351,,0.863981786708832,,1.17108881473541,0.602840695981175,1.00597842666412,0.599258075523773,5.71676126011822E-4,99.8684533060393
740,0.652088219135107,,0.931990732665109,,1.16803753376007,0.65184281828293,1.08279434359185,0.602000575770124,5.57188588999391E-4,99.871784852045
738,0.735319667166788,,1.04859440346383,,1.16498303413391,0.735074266314612,1.21580405905229,0.604599286243208,5.9792896902936E-4,99.8624164999231
736,0.838500298773542,,1.1929821622863,,1.16204738616943,0.838254897921365,1.38052576460681,0.60719974911885,6.56704921103286E-4,99.8489023714023
734,0.928754195507631,,1.31702454002552,,1.15931880474091,0.928508794655455,1.5210888393393,0.610423777127155,6.04104679420155E-4,99.8609964566022
732,0.969252584017683,,1.37069086824125,,1.15665113925934,0.969007183165506,1.57966193792628,0.6134269364226,6.73811866987777E-4,99.844969380771
730,0.973961821669764,,1.37620999511129,,1.15388596057892,0.973716420817587,1.58225392028641,0.615398330402827,6.68415512507424E-4,99.846210018674
728,0.97154884102755,,1.37376421417624,,1.15089321136475,0.971303440175374,1.57533531190228,0.61656933151742,6.1940264108547E-4,99.8574789290866
726,0.967838184304096,,1.37096078401166,,1.1476241350174,0.96759278345192,1.56764333686066,0.617227631247812,6.30879871768776E-4,99.8548400003757
724,0.97552944098723,,1.38556987971744,,1.14410185813904,0.975284040135054,1.57954623465938,0.617445706073536,5.8397427526204E-4,99.865625317645
722,0.987969531879905,,1.40693472338207,,1.14027833938599,0.987724131027729,1.59862935576649,0.617856870615359,5.84324325388668E-4,99.8655448239658
720,0.992751401367634,,1.41687194868416,,1.13600122928619,0.992506000515457,1.60392170088887,0.618799533646452,6.52788744651564E-4,99.8498027459166
718,0.977619199279661,,1.39698635458638,,1.13137769699097,0.977373798427485,1.57489561161697,0.620595924719099,6.87252056024565E-4,99.8418795084506
716,0.918204132988752,,1.31259790887865,,1.12621939182281,0.917958732136576,1.47267526540358,0.623327323885634,7.69442433819028E-4,99.8229861867777
714,0.8173555890802,,1.16847655935688,,1.12039887905121,0.817110188228023,1.30359080533034,0.626814936778388,9.00777628364902E-4,99.792803235542
712,0.694644949616914,,0.993125896300219,,1.11375534534454,0.694399548764737,1.1005632757885,0.63094922758279,9.00731149246341E-4,99.7928139155805
710,0.567600643178757,,0.813209429733974,,1.10628998279572,0.567355242326581,0.894146553326966,0.634521533651893,9.77878080431032E-4,99.7750885565905
708,0.46635519680597,,0.67152080572738,,1.09837675094604,0.466109795953794,0.732123281364058,0.636654792735671,9.94194798427066E-4,99.7713400139111
706,0.393567762709607,,0.570847960670664,,1.09038031101227,0.393322361857431,0.617021564344315,0.637453185733305,8.05060613480719E-4,99.8147996511255
704,0.337779054436434,,0.495022501684097,,1.0826700925827,0.337533653584258,0.530564569363072,0.636178277018116,9.00570945313455E-4,99.7928507274786
702,0.303200706796282,,0.449637185398163,,1.07555782794952,0.302955305944106,0.478264658141438,0.633446985444014,9.78737336922859E-4,99.7748911506567
700,0.276185675471124,,0.414555212271742,,1.0694442987442,0.275940274618947,0.438027959657811,0.629960413564725,8.03070790177348E-4,99.8152569773814
698,0.264015556806374,,0.40045148460593,,1.0649927854538,0.263770155954198,0.421184319970731,0.626258251903888,9.2919825651842E-4,99.7862729168932
696,0.266826254732155,,0.407539848225067,,1.06259047985077,0.266580853879978,0.427766281655059,0.623192769772684,0.00100217346135187,99.7695070765552
694,0.285224061970652,,0.436448003932309,,1.06203079223633,0.284978661118476,0.458242320124393,0.621895116629815,9.28562134171517E-4,99.7864190765319
692,0.311374917884225,,0.47608323631788,,1.06277585029602,0.311129517032049,0.500687163663767,0.62140502016342,9.91094514527404E-4,99.7720522508748
690,0.337488597284275,,0.514900258867853,,1.06392598152161,0.337243196432098,0.542527443867355,0.621614998917091,0.0010024880502565,99.7694348067708
688,0.355297175704326,,0.541090799839861,,1.06461536884308,0.35505177485215,0.570761835366254,0.62206642569981,9.26919034290308E-4,99.7867966069182
686,0.367668977412703,,0.55937557759883,,1.0645604133606,0.367423576560527,0.590197623189694,0.622543300962149,9.4122452102862E-4,99.7835097238362
684,0.375306011989121,,0.570938387306045,,1.06376242637634,0.375060611136944,0.602055297720152,0.622967047308137,9.90295792319215E-4,99.7722357444039
682,0.373690400728487,,0.568611429612706,,1.06245732307434,0.37344499987631,0.598844358012253,0.623609448565047,0.00110852683713673,99.7450777430131
680,0.367930946405797,,0.560139208272048,,1.06094348430634,0.367685545553621,0.589002548600002,0.624251196242819,9.88782389119881E-4,99.7725834252752
678,0.367166923581702,,0.559417693382353,,1.05921316146851,0.366921522729525,0.587277689560405,0.624783691347405,0.00100112992309269,99.7697468065706
676,0.373750872835179,,0.569911022197846,,1.05730748176575,0.373505471983002,0.597315765997926,0.625306568560085,0.00100573980521214,99.7686877916624
674,0.382457440183201,,0.583571414904492,,1.05524814128876,0.382212039331025,0.61056746527227,0.625994768916463,0.00100797980398906,99.7681732072695
672,0.388232498143524,,0.592707202831854,,1.05312037467957,0.387987097291347,0.618957422121226,0.626839720188957,0.00105845614476009,99.7565782184387
670,0.394861299081392,,0.60311808993625,,1.0509113073349,0.394615898229215,0.628599991297573,0.627769493624457,8.84313500450711E-4,99.7965864579622
668,0.400406826708159,,0.611963011775908,,1.0485315322876,0.400161425855982,0.636450714206466,0.628739063251596,9.61297643884467E-4,99.7788978292688
666,0.40398044424759,,0.617885260592576,,1.04595601558685,0.403735043395414,0.641081806813144,0.629771487982797,9.1084204110742E-4,99.7904906472755
664,0.407733610431324,,0.62394741571972,,1.04322910308838,0.407488209579147,0.645734658741168,0.63104590107263,8.8704243762733E-4,99.7959593770975
662,0.410363271980875,,0.628292535941615,,1.04042720794678,0.410117871128698,0.648521131827328,0.632389371758967,7.84764341615155E-4,99.8194644942986
660,0.415417596301499,,0.636414070638167,,1.03775990009308,0.415172195449323,0.655286743289663,0.633573316873588,8.43198836620844E-4,99.8060346492267
658,0.421620171960308,,0.646283960430272,,1.03528940677643,0.421374771108132,0.663944958691327,0.634653167543715,7.66692037113989E-4,99.8236183699923
656,0.42916838207419,,0.658161290399902,,1.03309750556946,0.428922981222014,0.674809703063036,0.635620648717831,7.00661581117438E-4,99.8387967810035
654,0.441630409001934,,0.67751660953643,,1.03115320205688,0.441385008149757,0.693498001357032,0.636461831592965,7.77138570519758E-4,99.8212172383509
652,0.457725448305297,,0.702426439148809,,1.02945709228516,0.45748004745312,0.718000890210901,0.637158050484789,7.10389713970732E-4,99.8365604316099
650,0.474459179317534,,0.728316900776313,,1.02793705463409,0.474213778465357,0.743554495899574,0.637766002465817,7.2660279010451E-4,99.8328334039612
648,0.486709568367705,,0.747204335088049,,1.02666783332825,0.486464167515528,0.762027530588042,0.638381354988753,6.68035038799955E-4,99.8462974912897
646,0.489547082089277,,0.751739569139752,,1.02560043334961,0.4893016812371,0.765886608292682,0.638869613254962,6.84887763696247E-4,99.8424230475517
644,0.489809249446627,,0.752436642501224,,1.02465677261353,0.489563848594451,0.765896172650881,0.639203936611927,6.76094087489032E-4,99.8444446961461
642,0.492688213668522,,0.757453967310277,,1.02378344535828,0.492442812816346,0.770380044237599,0.639220624287703,7.97854758369613E-4,99.8164558014594
640,0.500116895584639,,0.769226454140678,,1.02288675308228,0.499871494732463,0.781747219017796,0.639428555128744,6.67388283078715E-4,99.8464461835134
638,0.51208110146945,,0.788009046839064,,1.02184903621674,0.511835700617273,0.80014711204458,0.639676995533237,7.87881165934927E-4,99.8187481172064
636,0.525050234413233,,0.808132958806993,,1.02063095569611,0.524804833561057,0.819732395634204,0.640214826638674,7.28606797031408E-4,99.8323727367494
634,0.538819046919251,,0.829751856730862,,1.01923584938049,0.538573646067074,0.84064665450236,0.64066590068796,7.82879084319539E-4,99.8198978080753
632,0.555363962624625,,0.855290955749906,,1.0177036523819,0.555118561772449,0.865374161441808,0.641478087175102,7.33391953901091E-4,99.8312727666776
630,0.568145365161444,,0.875201012738221,,1.01619136333466,0.567899964309267,0.884320659192053,0.642187829048482,7.45465904081969E-4,99.8284973663237
628,0.57916050183618,,0.89240187784283,,1.01451146602631,0.578915100984003,0.900309236289221,0.6430180627382,7.52559416290937E-4,99.8268668393166
626,0.594546105107221,,0.916340863953229,,1.01275491714478,0.594300704255045,0.922994745714195,0.643883084941276,7.4803870757251E-4,99.8279059741776
624,0.608887009285758,,0.938783791414821,,1.01092803478241,0.608641608433581,0.944017963953591,0.64473519750044,7.89529894306034E-4,99.818369172282
622,0.62443022821779,,0.962823357358802,,1.0092089176178,0.624184827365614,0.966673573943846,0.645703828252031,7.39491483110973E-4,99.8298706777411
620,0.636544554646435,,0.981803295027103,,1.00772297382355,0.636299153794258,0.984376777769962,0.646397972975094,7.94593814021036E-4,99.8172052862975
618,0.648282942661054,,1.00003720761294,,1.0068142414093,0.648037541808878,1.0018472610782,0.646842654549406,7.47190040717449E-4,99.8281010508394
616,0.65649279065071,,1.01278348746923,,1.00664889812469,0.656247389798534,1.0145137620646,0.64685903172277,7.12266611477642E-4,99.8361289672597
614,0.660521548874358,,1.01933557331951,,1.00700271129608,0.660276148022181,1.02146830776469,0.646399054188069,7.31330731074406E-4,99.8317465810942
612,0.669874260323803,,1.03395479170592,,1.00780045986176,0.669628859471626,1.03701077100315,0.645729898083763,7.66792586281419E-4,99.82359525853
610,0.67544759099001,,1.04279748728827,,1.00835275650024,0.675202190137833,1.04649563199475,0.645203065827245,7.42505519203124E-4,99.8291778533979
608,0.68387298615898,,1.05613268010607,,1.0085117816925,0.683627585306803,1.06010937168758,0.644865146525914,7.6460475274578E-4,99.8240981384158
606,0.69442296475452,,1.07252550688383,,1.00798010826111,0.694177563902343,1.07607414003213,0.645101985149106,7.63582974985081E-4,99.8243329978664
604,0.703851434565478,,1.08737171196367,,1.00688087940216,0.703606033713302,1.08984901286446,0.64559955132134,8.81085397704424E-4,99.7973282468762
602,0.718399469175316,,1.10972504439388,,1.00539457798004,0.718154068323139,1.11071415773419,0.64656965369753,7.03984859777224E-4,99.8380328042846
600,0.732293632632981,,1.13124738317507,,1.00393652915955,0.732048231780805,1.13071043387244,0.647423256963942,8.14426227920316E-4,99.812647155784
598,0.748447937072826,,1.15617284999442,,1.00287997722626,0.74820253622065,1.15451771552506,0.648065011181206,8.87639277007873E-4,99.7958222302533
596,0.766461352528192,,1.18374891952534,,1.00218975543976,0.766215951676015,1.18135958501049,0.648588254920884,8.00556987069476E-4,99.8158347342718
594,0.784560047829408,,1.21145742618953,,1.00178515911102,0.784314646977232,1.20864062637552,0.648922955146096,8.4326644760715E-4,99.8060191114195
592,0.80325557540363,,1.24009766502772,,1.00154709815979,0.803010174551454,1.23703795706608,0.649139478675317,8.85562848134928E-4,99.7962993706055
590,0.82175428291028,,1.26858824108576,,1.00122630596161,0.821508882058103,1.2651672521518,0.649328284984361,9.27710355504244E-4,99.7866147871153
588,0.84228661620226,,1.29993704161967,,1.00070452690125,0.842041215350083,1.29587880951836,0.649783922049814,8.95790922289254E-4,99.7939490945293
586,0.856583111201286,,1.32173579946714,,0.999973237514496,0.85633771034911,1.31672998874059,0.650351793968154,8.58855539792544E-4,99.8024366175741
584,0.873024012319674,,1.34672633586631,,0.999053955078125,0.872778611467497,1.34048640382218,0.651090983824164,8.8288876799313E-4,99.7969138479592
582,0.886293950926318,,1.36678195102054,,0.998229086399078,0.886048550074141,1.35939972990924,0.651793972427298,8.72301266374557E-4,99.799346788994
580,0.899314759284933,,1.38640560664281,,0.997582137584686,0.899069358432757,1.37809491597429,0.652400170707497,8.42888364215329E-4,99.8061059995018
578,0.911590921955607,,1.40489237262119,,0.997147619724274,0.91134552110343,1.39592869246996,0.652859652516272,7.21840714695642E-4,99.8339280853519
576,0.924717115140462,,1.42488623698222,,0.996688485145569,0.924471714288285,1.41521359434546,0.653238294192513,8.28764087341684E-4,99.8093519813344
574,0.940491957911902,,1.44884310334157,,0.996220171451569,0.940246557059725,1.43841494190663,0.653668513630304,8.43579408128834E-4,99.8059471894084
572,0.956018383020759,,1.47248058341069,,0.9957315325737,0.955772982168583,1.46124599390796,0.654080822909538,8.45726703081337E-4,99.8054537171546
570,0.974346044080338,,1.49989658366735,,0.995352268218994,0.974100643228162,1.48797799771097,0.654647208982035,7.40056378077966E-4,99.829740827243
568,0.990307819224078,,1.52423197785722,,0.995181918144226,0.990062418371901,1.51194148122158,0.654828530514275,8.52788708245074E-4,99.8038308070593
566,1.00797534234684,,1.5507833540939,,0.995282471179962,1.00772994149466,1.5385203669222,0.654999415776744,8.54945701019118E-4,99.8033351166551
564,1.0290741581805,,1.5825897641841,,0.995623111724854,1.02882875732833,1.57071413041779,0.655007004396573,8.2651738646514E-4,99.8098683184005
562,1.04549623300502,,1.60717915159805,,0.996170461177826,1.04525083215284,1.59607286082052,0.654889170670752,8.03169582802494E-4,99.8152342715665
560,1.06916716796903,,1.64286189376504,,0.99668163061142,1.06892176711685,1.63245619452094,0.65479353792433,8.26364023593239E-4,99.8099035643716
558,1.0946059541833,,1.68111404815321,,0.997178435325623,1.09436055333112,1.67141413011216,0.654751287317218,8.53669764998641E-4,99.80362833442
556,1.12164371805231,,1.72149307020866,,0.997675478458405,1.12139831720014,1.71253240586598,0.65481874290903,7.75528040860514E-4,99.8215874142011
554,1.1455765075685,,1.75761982024741,,0.99818366765976,1.14533110671632,1.74946585591836,0.654674741345606,9.30277601221793E-4,99.7860249200712
552,1.1794464628775,,1.80790672647957,,0.998678505420685,1.17920106202532,1.80055358530681,0.654910285174539,7.76469225468094E-4,99.821371085319
550,1.20199480110527,,1.84162606075646,,0.999059557914734,1.20174940025309,1.83492822182138,0.65492992366765,8.3203911969914E-4,99.8085993177882
548,1.22969371456881,,1.88258806620802,,0.999196529388428,1.22944831371663,1.87610888491449,0.65531820866179,8.55723900523217E-4,99.8031562821556
546,1.25819266617612,,1.92479969934013,,0.99907249212265,1.25794726532395,1.91804847188405,0.655847484442505,8.84933880906104E-4,99.7964439007571
544,1.28479505407031,,1.9641146466928,,0.998806416988373,1.28454965321814,1.9568056747903,0.656452334417824,8.92256496308309E-4,99.7947612525842
542,1.31535252465134,,2.00860793722546,,0.998482644557953,1.31510712379916,2.00059713634745,0.65735729593225,8.38363584547959E-4,99.8071458538183
540,1.33761116408876,,2.04081029610558,,0.99831360578537,1.33736576323659,2.03240649695473,0.658020806979528,8.3702656385226E-4,99.807453120962
538,1.35434719917814,,2.0646854104511,,0.998360693454742,1.35410179832596,2.05633833561691,0.658501461005796,8.9744502845389E-4,99.7935690080237
