790,0.000708819669462216
788,0.000851836536434398
786,0.000738375223582292
784,0.00069158233305498
782,0.000691573446863295
780,0.000595606180184194
778,0.000415707248598793
776,0.000703423421667921
774,0.000482826044607511
772,0.000412992934754106
770,0.000526184523916549
768,0.000643215596398171
766,0.000639289215321702
764,0.000489238090274557
762,0.000523437716317041
760,0.000332315894130059
758,0.000333118421659705
756,0.000379496305248877
754,0.000354130276336532
752,0.000255954338224948
750,0.000357602781374557
748,0.000348084453769009
746,0.000298587772366366
744,0.000349984392472815
742,0.000321348697589341
740,0.000296341367503759
738,0.000344577351939186
736,0.000393369224701422
734,0.000460929457023042
732,0.000407436643545761
730,0.000456322560662372
728,0.000293525583972893
726,0.000299647731532626
724,0.000331798664294644
722,0.000394571891122431
720,0.00052888347431789
718,0.000485044739120273
716,0.000609219991018782
714,0.000625879412626036
712,0.000527137281245451
710,0.000487550448855262
708,0.000506576498137611
706,0.000512546980586531
704,0.000658585505046612
702,0.000646205736522377
700,0.000623108140371198
698,0.000511256790342193
696,0.000486330572012458
694,0.000437090541734257
692,0.000538971727413415
690,0.000502630281755986
688,0.000505350213371747
686,0.000448485406863607
684,0.000472573948661855
682,0.000581371008877839
680,0.000669680932544981
678,0.000600296660857325
676,0.000547242156983299
674,0.000688442727574529
672,0.000619088737976123
670,0.000645476973103665
668,0.000680778399234616
666,0.000597850893432138
664,0.00059255460261926
662,0.000641281350974995
660,0.000669708798796414
658,0.000746926833187145
656,0.000686784441711718
654,0.000603634589475082
652,0.000768312479646116
650,0.000751339148464332
648,0.00081930642282892
646,0.000806079182125171
644,0.000782394566251482
642,0.000910456037919332
640,0.000891212229415315
638,0.000899907003240363
636,0.000911738791406236
634,0.000931789715388043
632,0.000966733445524288
630,0.000996357760691577
628,0.00097589716098149
626,0.0010900260915649
624,0.00098528059201339
622,0.00107548953715506
620,0.00116553087211901
618,0.00115516818829681
616,0.00115853577153958
614,0.00122470093941173
612,0.00128081050391843
610,0.00126881112682177
608,0.00136455663510698
606,0.00135146612493059
604,0.00142401334945214
602,0.00143216880416847
600,0.00141155203464053
598,0.0015673843845286
596,0.00149565785405624
594,0.00158985238414934
592,0.00161101897086365
590,0.001581789563097
588,0.00169008115638978
586,0.00170587824259498
584,0.0017088969481443
582,0.00175977950071607
580,0.00195981743095372
578,0.00178534183440365
576,0.00192230375710014
574,0.00204614789290179
572,0.00196867025419947
570,0.00203167997845051
568,0.00212298485803828
566,0.00222527408962842
564,0.00221581845453767
562,0.00225524282984201
560,0.0023759849812576
558,0.00240694765530694
556,0.00248435850292075
554,0.00257099691072481
552,0.00259060603371804
550,0.0027128053080539
548,0.00275001987253858
546,0.00282355461852944
544,0.00290779845630404
542,0.00298133144245334
540,0.00311625328572606
538,0.00314803266895978
536,0.00326173998604016
534,0.00327665997635817
532,0.00344149175632342
530,0.00345780840275812
528,0.0035005930035024
526,0.00367375464251827
524,0.00375869496755274
522,0.00384006782559753
520,0.00395371818136566
518,0.00406037041262724
516,0.00410432485074939
514,0.00422498019355431
512,0.00437192381726418
510,0.00439860645539245
508,0.00460170479213156
506,0.00468648673977163
504,0.00479032716512867
502,0.00490301985755704
500,0.0049755330831912
498,0.00511741304332145
496,0.00515096542048611
494,0.00527664591901416
492,0.0054580755040849
490,0.00556409019474091
488,0.00559585527219346
486,0.00580975304353212
484,0.0059243038488524
482,0.00595055371768581
480,0.00612256246984868
478,0.00623759167159971
476,0.00622951366500966
474,0.00641220956411616
472,0.0066324458222387
470,0.00663063758312695
468,0.00682750808452907
466,0.00693912269468674
464,0.00697114957368846
462,0.00712213532803572
460,0.00730011469277169
458,0.00739651326757758
456,0.00756362482807816
454,0.00772209729076764
452,0.00778103798363563
450,0.00795683525750005
448,0.00811211019866268
446,0.00816259518101807
444,0.00835970109307589
442,0.00851859543080035
440,0.00865863229038195
438,0.00877820945224827
436,0.00906410287702102
434,0.0091683159925191
432,0.00939079291551395
430,0.00950198581080597
428,0.00966461999532656
426,0.00992782923977377
424,0.0100081209048119
422,0.0101762277480433
420,0.0104860581770007
418,0.0107950520494924
416,0.0109185447192046
414,0.0111416650053716
412,0.0114686545099171
410,0.0117867305076097
408,0.0119892024717864
406,0.0123365744264685
404,0.0126287675698925
402,0.0130727224836738
400,0.0134651755040722
398,0.0139255954373151
396,0.0143668723325162
394,0.0149012442371568
392,0.0154325310997596
390,0.0160671489222504
388,0.0166120103169575
386,0.0173110431634169
384,0.0180764573213692
382,0.0187579441769076
380,0.0195383902773803
378,0.0203049571235748
376,0.0211423820860923
374,0.0219435440223122
372,0.0228954893846963
370,0.0237867720521394
368,0.0247094913205261
366,0.0255920273555325
364,0.0265166140030831
362,0.0274298162784404
360,0.0283284704227034
358,0.029194983924877
356,0.0300001535720809
354,0.0308598468741524
352,0.0317660529712509
350,0.0325418065504398
348,0.0333984467811837
346,0.0342538333823831
344,0.0351030113935031
342,0.035893874922457
340,0.0367772706950145
338,0.0376277365876822
336,0.0384687663657599
334,0.0393035649730916
332,0.0402363363640886
330,0.0410346241574516
328,0.0421472345451655
326,0.0431984536635071
324,0.0443676504730686
322,0.0456520853821437
320,0.0471270635002282
318,0.0487671746875096
316,0.0506502826495535
314,0.0526812798910271
312,0.0547908908610123
310,0.0573251085665378
308,0.0597666142276172
306,0.0623284042254313
304,0.0650551776036209
302,0.0680654801890337
300,0.0712234050555369
298,0.0746688826336818
296,0.0787781526123236
294,0.0839030880813845
292,0.0897486113485829
290,0.0963760921242769
288,0.103858136673088
286,0.112057389242606
284,0.119924795384794
282,0.127100552989677
280,0.133666854726521
278,0.138963492263666
276,0.14308066261859
274,0.146289586537297
272,0.148027392422745
270,0.148299417783381
268,0.147300550109218
266,0.145085945830192
264,0.141946771692063
262,0.138106476284905
260,0.134060455522268
258,0.130089366700425
256,0.126578068047997
254,0.123751587424712
252,0.122038223944318
250,0.121805009448943
248,0.123290208541576
246,0.127053159260673
244,0.133628986229274
242,0.142586706842252
240,0.15479543004733
238,0.17078367004882
236,0.187931859404322
234,0.209479891242948
232,0.231957848322293
230,0.258592686474614
228,0.287223540334637
226,0.317223058203834
224,0.352794945729735
222,0.389991515651258
220,0.434863099096336
218,0.488042138317925
216,0.546720341595316
214,0.60685222108208
212,0.663028974040887
210,0.70590917869498
208,0.732007887132261
206,0.735014611456217
204,0.717196709774428
202,0.68549917567677
200,0.654612247939141
