790,0.0005601953531272
788,0.000645280582331212
786,0.00047724023124866
784,0.000369619861357447
782,0.000481362887727953
780,0.000407060562581488
778,0.000440479846203952
776,0.000504450615539439
774,0.000551886174451855
772,0.000549772354724281
770,0.000566041553113232
768,0.000691420445753657
766,0.00051092481634906
764,0.000550706435998014
762,0.000667716466197455
760,0.000542403400056135
758,0.000561558082166866
756,0.000479650131759869
754,0.000760517027439197
752,0.00062254630521877
750,0.000450253000536892
748,0.000530809255816813
746,0.000595144951384458
744,0.000455167546461931
742,0.000505972927642626
740,0.000613146074478915
738,0.000714556209417608
736,0.000527789909412431
734,0.00061932551108931
732,0.000553368787601228
730,0.000622079193561044
728,0.000437695665233071
726,0.000666532052017706
724,0.000621013799650689
722,0.000606281982609857
720,0.000653990943050947
718,0.000655377705928684
716,0.000743314545934677
714,0.000782058095996788
712,0.00089808160723038
710,0.000956564379171769
708,0.000793718561186038
706,0.000831884649795643
704,0.0010899034828294
702,0.000918920217697184
700,0.000942809406156739
698,0.000846380910676051
696,0.000964368289978345
694,0.000991558338181273
692,0.000996070124523071
690,0.00100882836243964
688,0.00101749165733868
686,0.000966214645285731
684,0.00103003570165477
682,0.00108003042101113
680,0.00108126074359943
678,0.00121846043394095
676,0.00129770718510695
674,0.00121963499130872
672,0.00121917019825952
670,0.00139088606136165
668,0.00127412459987025
666,0.00137744826654398
664,0.00126953765180605
662,0.00145793623971807
660,0.00153708231176151
658,0.00129900871298968
656,0.00152190383002156
654,0.00151243799222759
652,0.00148355552890243
650,0.00157188687143064
648,0.00156886595650809
646,0.00161567193581904
644,0.00166736033941784
642,0.00161081557036973
640,0.00181930860309601
638,0.00171412283750228
636,0.00169531208526918
634,0.00180063360143575
632,0.00175252789866551
630,0.00179602922407663
628,0.00179993730903045
626,0.0018753463352135
624,0.00189768614195486
622,0.00201834510108486
620,0.00193728484922806
618,0.00200677053079138
616,0.00192155016551063
614,0.00190116723274857
612,0.00205386104335823
610,0.00211033726942672
608,0.00213554466910178
606,0.0021138938306172
604,0.00228431621636472
602,0.0022060520522732
600,0.00223596205315984
598,0.0023545050597873
596,0.00233828208569861
594,0.00236948105760966
592,0.00242647648037512
590,0.00248693706843278
588,0.0025401275587498
586,0.00248740895921418
584,0.0026547163913682
582,0.00266453715423598
580,0.00263545892170759
578,0.00266547663756128
576,0.00283754409908547
574,0.00285792523611092
572,0.00285938792682276
570,0.00299270303832
568,0.00297693657751068
566,0.00310123101678471
564,0.00312267323196645
562,0.00314050453420786
560,0.00328077863646954
558,0.0033159478295657
556,0.0033397507340327
554,0.00343664317625886
552,0.00342763444912211
550,0.00355766389115181
548,0.00360687029972386
546,0.00363566578323595
544,0.00383544254223811
542,0.00391150542302021
540,0.00386836967963885
538,0.00403578758248847
536,0.00409726351612988
534,0.00421407802574295
532,0.00422997722951771
530,0.00434251930337288
528,0.0044942721281167
526,0.00459752671914093
524,0.00464338362372613
522,0.00486950989916538
520,0.00495654304169996
518,0.0050953540854469
516,0.00518559194156624
514,0.00523012850985634
512,0.00540120811135981
510,0.00558262657099857
508,0.00560012527234374
506,0.0057288247568419
504,0.0058571662456784
502,0.00599396341737245
500,0.00611339352561796
498,0.00616929811223595
496,0.00628756727675082
494,0.00641044959021696
492,0.00638547252490418
490,0.00653153492007059
488,0.00668062088780928
486,0.00675458224704357
484,0.00681639396235073
482,0.00685207958115488
480,0.00695256768972088
478,0.00702667111809942
476,0.00714540156138133
474,0.00719233205501364
472,0.00742894447315797
470,0.00749045541289308
468,0.00762832301441342
466,0.00768377094700075
464,0.00784903421521299
462,0.00787753608637533
460,0.0079636589865683
458,0.00797265299281214
456,0.00825950694206002
454,0.00833681234769901
452,0.00835176869773921
450,0.00858194616980657
448,0.0086615174563237
446,0.00889234661546004
444,0.00897037208977729
442,0.00920576020232485
440,0.00937490265461882
438,0.00943622070551967
436,0.00960405587372099
434,0.00981476941179314
432,0.00987463929042027
430,0.0100107044957681
428,0.0102589646756406
426,0.01039781740645
424,0.010666000381591
422,0.0107546062459753
420,0.0110258323407232
418,0.0112745111580159
416,0.0115010215524576
414,0.0118328053961191
412,0.0120966930058684
410,0.0124206083400029
408,0.012679593053586
406,0.0130117450881683
404,0.01340328165668
402,0.0137243481697761
400,0.0141847547918098
398,0.0146669330607962
396,0.0150589653387117
394,0.0155695919682231
392,0.0161088536671445
390,0.0167422313362465
388,0.0173449040798576
386,0.0179371137955901
384,0.0187371879108534
382,0.0193982318886905
380,0.0201515211037371
378,0.0209019933594103
376,0.0217338836229068
374,0.022523048752748
372,0.023382891677368
370,0.0242695160173275
368,0.0251519137466247
366,0.0260230971191851
364,0.0268976809669218
362,0.0278313310310226
360,0.0287060799715105
358,0.0295646463558841
356,0.0304507277572814
354,0.031277185166992
352,0.0321568833487914
350,0.0330663696570708
348,0.033892784301733
346,0.0347853447066807
344,0.0357103341327055
342,0.0365896408451829
340,0.0374429921338066
338,0.0383055267917439
336,0.039239139364285
334,0.0401639349231778
332,0.0411515996327629
330,0.0420984142512951
328,0.0431975496825626
326,0.044256682091923
324,0.0455043462779335
322,0.0468092687005487
320,0.0483132018768467
318,0.0499807944099061
316,0.0517664897097688
314,0.0537679533279941
312,0.0560008387011378
310,0.0581676148714193
308,0.0606747806023253
306,0.0631821846792209
304,0.0658370821378118
302,0.0687588167258652
300,0.0717788140424654
298,0.0753009404234441
296,0.079332021352333
294,0.0843924196479207
292,0.09014196281597
290,0.0968433036121943
288,0.104285290321608
286,0.112374918160936
284,0.12022903934168
282,0.127281393491375
280,0.133707988899013
278,0.138973102533281
276,0.143078034440353
274,0.146182898621802
272,0.147890466422965
270,0.148222739390416
268,0.147152522054376
266,0.144917554220071
264,0.141922351103864
262,0.138384113392632
260,0.134577911300687
258,0.130882783992421
256,0.127706892383263
254,0.125330765490632
252,0.124047772630085
250,0.124314828327651
248,0.12618238492036
246,0.130358424145811
244,0.137269172471776
242,0.146611072442905
240,0.159157028432646
238,0.175243748372017
236,0.192678148654179
234,0.214167634293341
232,0.238144847515914
230,0.265270522242747
228,0.29500362782109
226,0.326396832742388
224,0.362783966505276
222,0.401996514959531
220,0.449949327458792
218,0.504024827937797
216,0.564366801256068
214,0.62750268300201
212,0.68465302016113
210,0.727689785366478
208,0.753018698430616
206,0.754915062473348
204,0.744715721218466
202,0.717493760926547
200,0.689488086559121
