790,0.000749550521673647
788,0.000672791856773156
786,0.000553674336720436
784,0.000459986271340244
782,0.000454094914244403
780,0.000317092621129239
778,0.000494934338783556
776,0.000430081017723189
774,0.000445391320082326
772,0.000235192896862024
770,0.000481397373464413
768,0.000591393491515204
766,0.000545934880686262
764,0.000419397456470108
762,0.000378834183663758
760,0.00035539741880816
758,0.000317275797210552
756,0.000327473028851827
754,0.000370851853169739
752,0.000238989846562362
750,0.0001542269299469
748,0.000245357713537087
746,0.000376186793626077
744,0.000168156867962459
742,0.000190601390049016
740,0.00029470014885836
738,0.000361362394262118
736,0.000351731330501805
734,0.000377995221543225
732,0.000232052254671208
730,0.000186480691050771
728,0.000142507251128337
726,0.000164859819289785
724,0.000146729679941151
722,0.000199379913010495
720,0.000343208186908902
718,0.000331557110956979
716,0.000361770085574702
714,0.000416985175745486
712,0.000337798031932439
710,0.000153296453744419
708,0.000146759943788534
706,3.4172949397016e-05
704,0.000238743320622464
702,0.000184673810076936
700,0.000214669132120297
698,0.000104549984175301
696,0.000341597044326799
694,0.000300317069178644
692,0.00030212589338272
690,0.000237636559924672
688,0.000327453910982585
686,0.000222022863931399
684,0.000223464210956295
682,0.000291111626569853
680,0.000251320372919041
678,0.000317657574443799
676,0.000280019233562518
674,0.000280447524278239
672,0.000263355203406517
670,0.000374360424305913
668,0.000204893700756555
666,0.000258942169220461
664,0.000215908386575999
662,0.000272073484295224
660,0.000333175588200584
658,0.000187701053572636
656,0.000382018845294104
654,0.000330441188063144
652,0.000257505679791013
650,0.000418376212855341
648,0.000271000130942254
646,0.00037152125330825
644,0.000289598446067446
642,0.000281837220382882
640,0.000380809203831082
638,0.000293116039508734
636,0.000223905287544828
634,0.000385941593147037
632,0.000289529082096223
630,0.00026186451154497
628,0.000264962537179535
626,0.00029780842572449
624,0.000381660718627988
622,0.000341919656344737
620,0.000291988764749055
618,0.000359535939240565
616,0.000279762364241503
614,0.000174529334548517
612,0.000369968400514396
610,0.000347328421518606
608,0.00036749466905398
606,0.000286866769717109
604,0.000448871599848843
602,0.000378625758358928
600,0.000331577570282416
598,0.000366110266432951
596,0.000421512824024193
594,0.000422710870108627
592,0.000353932930853773
590,0.000455883201910906
588,0.00042044344811043
586,0.000439856477710767
584,0.000445214426816255
582,0.000428659065317511
580,0.00048985311512639
578,0.000429575721447988
576,0.00048068944382433
574,0.000527618335992008
572,0.000596683737608978
570,0.000616009902356774
568,0.000681392718906621
566,0.000782226969722785
564,0.00084793171870174
562,0.000881719154524474
560,0.00101077819431368
558,0.00111717405180385
556,0.00110949954472787
554,0.00105295231429367
552,0.00104316961560832
550,0.00100034732719328
548,0.000996243402272563
546,0.000895848204108697
544,0.000893754268270724
542,0.000956232639532115
540,0.000807786769779119
538,0.000849514137933709
536,0.000853520521364371
534,0.000749490488190473
532,0.000839415680206684
530,0.000749158889639894
528,0.000858880014479301
526,0.000781928059855966
524,0.000785298729479423
522,0.000845978862846492
520,0.000847110212883645
518,0.000779525704876465
516,0.000808801791792567
514,0.000853981863302544
512,0.000822062088917668
510,0.0008787543722428
508,0.000893357412256185
506,0.000941174296700998
504,0.00099591232071314
502,0.000875667740732646
500,0.00109902894776632
498,0.000982927779932968
496,0.00109458379004308
494,0.00110135279736633
492,0.00104026901401755
490,0.00115035244974439
488,0.00108056809659862
486,0.00122270919447889
484,0.00120111299467213
482,0.00118455167556155
480,0.00121542750605734
478,0.0012321986867978
476,0.00121268218663705
474,0.00113388242137428
472,0.00133020815021217
470,0.0013358846411303
468,0.0014653891113522
466,0.00142178559346401
464,0.00142986664287332
462,0.00142309137893144
460,0.00131734876255012
458,0.00126649779260254
456,0.00139554623837462
454,0.00133533177262167
452,0.00132942432822235
450,0.00144961908705327
448,0.00138302521650895
446,0.00144668363761324
444,0.00151887288024449
442,0.00178823571703558
440,0.00178028918000264
438,0.00180488308921607
436,0.00185934918047194
434,0.00199333580471901
432,0.00191149985469758
430,0.00201152656575085
428,0.00203083320146712
426,0.00199736900123547
424,0.00201059783095853
422,0.0019062794415823
420,0.00198403542749734
418,0.00197566552248438
416,0.00198739648205345
414,0.00210020939088567
412,0.00214440744682113
410,0.00226924098154246
408,0.00232511211525984
406,0.00234878284541067
404,0.00247571991436786
402,0.00254682069822706
400,0.00266494858993301
398,0.00277042475091994
396,0.00280904230379695
394,0.00294085744891153
392,0.00296688868131061
390,0.0030885431388625
388,0.00312356732492528
386,0.00322523921861114
384,0.00329825132535853
382,0.00338198170039789
380,0.0034647091581501
378,0.00356834646082301
376,0.00363388480339398
374,0.00372458646451831
372,0.00390662127632724
370,0.00401250299839447
368,0.00410927785242544
366,0.00427782532587147
364,0.0043535044783742
362,0.00452353021720571
360,0.00469231722446515
358,0.0048347007564357
356,0.00503732432642879
354,0.00512552638747352
352,0.00524466821575567
350,0.00553752982734254
348,0.00565757473584497
346,0.00578827764974935
344,0.00610255060963287
342,0.00633032840103165
340,0.00652037130269418
338,0.00671841783008602
336,0.00695073434579643
334,0.00718676889625065
332,0.0074248321232413
330,0.00768345600516733
328,0.00804258486512388
326,0.008348083451392
324,0.00876742147795336
322,0.00930940478496178
320,0.00987529738455479
318,0.0105071960046021
316,0.0112317689295664
314,0.01207531052347
312,0.0130966437290403
310,0.014110987381978
308,0.0153960060519377
306,0.0167583554472059
304,0.0182395999440308
302,0.0199411565820991
300,0.0216175407389958
298,0.0235529111142486
296,0.0254443854265801
294,0.0275047005100223
292,0.0293942153405281
290,0.031438157501206
288,0.0332514649006451
286,0.0351150054548277
284,0.0366824479778296
282,0.0380428415329609
280,0.0394106006561302
278,0.0405641564134669
276,0.041463750589013
274,0.0425081227539272
272,0.0433224601960664
270,0.0438070231724632
268,0.0441302542058188
266,0.0443501865781409
264,0.0443202574768263
262,0.0442603139934034
260,0.0439962895882942
258,0.0437354150768561
256,0.0435799345233132
254,0.0433808247381899
252,0.043362357961516
250,0.0434419448133027
248,0.0437100945601363
246,0.0443670269379894
244,0.0455437744578377
242,0.047122211944343
240,0.0493900967966488
238,0.0529061199328357
236,0.0573980371037524
234,0.0635230466812232
232,0.071253770239591
230,0.082441583548705
228,0.0956648588284594
226,0.112179436876597
224,0.132557492887569
222,0.152523203828403
220,0.177620561794854
218,0.205677822911003
216,0.233796553714741
214,0.262542813844499
212,0.291657808472056
210,0.320521356500844
208,0.35316264682302
206,0.391963293655458
204,0.441644675073795
202,0.512407962843084
200,0.618978101637413
