790,0.000432676436633553
788,0.000575368751944746
786,0.000534161872352372
784,0.00044548752232284
782,0.000439036399577915
780,0.000617247348820686
778,0.000439265900651487
776,0.000371953047335008
774,0.000324128315554768
772,0.000307131162281431
770,0.000397593945536738
768,0.00047306660065061
766,0.000371703656805664
764,0.000323817171928154
762,0.000356152283310906
760,0.000138604958776168
758,0.000223085808168474
756,0.000139005230303898
754,0.000185318561915386
752,2.61509443422735e-05
750,0.000108519742489576
748,0.000110414741039502
746,7.81749926412057e-05
744,0.000171137085059694
742,0.000124953454872982
740,8.6102668485145e-05
738,8.57037971014648e-05
736,0.00012598830612724
734,0.000164038609293707
732,8.33883939881611e-05
730,6.89198543386686e-05
728,-0.000132756184020532
726,-0.000167214047669938
724,-0.000107736993519785
722,-6.59220188113659e-05
720,9.91538596255932e-05
718,1.91660934495322e-05
716,0.000171438715816078
714,0.000168183624442542
712,4.52404378111621e-05
710,-8.66880470764531e-05
708,9.47303150938934e-05
706,-6.58189507007025e-05
704,-4.6757164725563e-05
702,-0.000138390510893932
700,-0.000174047378062983
698,-3.48829393140934e-05
696,-0.000161499784355329
694,-0.000240287274683148
692,-0.00011729291430043
690,-6.52975446687764e-05
688,-0.000181436196958275
686,-0.000165225399339633
684,-0.000141016784743313
682,-5.4122457803094e-05
680,-0.000129770941413239
678,-0.000107835155865825
676,-0.000126785996873425
674,-3.78966959937411e-05
672,-0.000170286363044982
670,-9.58673685844354e-05
668,-5.07888238302365e-05
666,-0.000151265376059156
664,-0.000122908077599024
662,-0.00013334842457262
660,-1.98585034979449e-05
658,-8.97379124535197e-05
656,-0.000100916710927408
654,-8.24002708748451e-05
652,-0.000127593168695944
650,-8.80531836548199e-05
648,-0.000140356991390438
646,-7.04748763045812e-05
644,-0.000111710380842708
642,-0.000118262089668227
640,-7.81923961585494e-05
638,-0.000174533024855658
636,-0.000119701285281079
634,-7.25653069847199e-05
632,-0.000125352791475827
630,-0.000161681207410042
628,-0.000126357783881206
626,-9.20632105631552e-05
624,-0.00021752160676038
622,-0.000163183302455775
620,-0.000193837198197234
618,-0.000129892768085867
616,-0.000169870020776726
614,-0.00018851300390405
612,-9.8093939508159e-05
610,-0.000200910601091265
608,-0.000136760230129797
606,-0.000168102257588114
604,-0.00015113751478479
602,-0.000145288363183164
600,-0.000206248688210774
598,-0.000144820404097178
596,-0.000146097123056267
594,-0.000148372557694107
592,-0.000187645766659427
590,-0.000102328772390084
588,-0.000216419080969238
586,-0.000175119078121017
584,-0.000189125163686026
582,-0.000175209107724132
580,-0.00010956727461427
578,-0.000231683840875801
576,-0.000158806869778456
574,-0.000168590391762278
572,-0.000213156085254638
570,-0.000195165766360939
568,-0.000196328814832577
566,-0.000175888006068123
564,-0.000239570348879067
562,-0.000174623268061408
560,-0.000161771804513699
558,-0.000205804534431118
556,-0.00018006821270852
554,-0.000124172638971626
552,-0.000131392786141885
550,-0.000168237237409544
548,-0.000142089333837302
546,-5.10434609291799e-05
544,-9.48241446301449e-05
542,-0.000160662894918914
540,-1.32814700881287e-05
538,-1.45855861338373e-05
536,-9.99663934239463e-05
534,-8.66931626156241e-05
532,6.42863074278936e-06
530,-4.63960897859956e-05
528,-8.34311591219274e-05
526,-4.41607916116847e-05
524,-2.20667313652325e-06
522,-6.62799016445222e-05
520,-7.05884086811299e-05
518,-1.99927999320338e-05
516,-4.1563262349248e-05
514,6.11440768465433e-07
512,-5.57069546082483e-05
510,1.70592414648497e-05
508,7.27206744361228e-05
506,2.66166806754765e-05
504,4.12659257621465e-05
502,0.000155966913119299
500,8.00412534452121e-05
498,4.90829720902681e-05
496,4.06134070014322e-05
494,0.000125295838320657
492,0.000187082577629055
490,0.000130621931085022
488,0.000173747694836366
486,0.000255518649369369
484,0.000239496241978999
482,0.000276427616892616
480,0.000289380620160778
478,0.000310115568431476
476,0.000266442665882238
474,0.000308630177298592
472,0.000366848444917278
470,0.000395148136208486
468,0.000436018859190857
466,0.000485397561439347
464,0.000376121772756352
462,0.000449846668440921
460,0.000417850600115273
458,0.000395322455225547
456,0.000504354440016107
454,0.000488415959719872
452,0.000358305490082261
450,0.000481408522201126
448,0.000506225983361147
446,0.000413343523987
444,0.000486366094921608
442,0.000544500953708953
440,0.000608419774639849
438,0.000645235803444557
436,0.000689309335838264
434,0.000773453272449221
432,0.000817027183907619
430,0.000781635020802812
428,0.000736819843278956
426,0.000853193559244836
424,0.000762577345919172
422,0.000789747224421832
420,0.000917164160358176
418,0.00099974726935152
416,0.000977742135835764
414,0.00101393631729465
412,0.00100218236739222
410,0.00118334491497418
408,0.00107928551523128
406,0.00120694760248692
404,0.00121875062501277
402,0.00129339941928776
400,0.00133544856651436
398,0.00138077010272015
396,0.00144826643022779
394,0.00149989849008028
392,0.00157719008095147
390,0.00162795864829868
388,0.00160984634557962
386,0.00169835295616126
384,0.00171797765023706
382,0.00186785991936775
380,0.00184840352931
378,0.00197351647376412
376,0.00201645631040157
374,0.00212000737175372
372,0.00221013005214241
370,0.00226473974173741
368,0.00242745071015052
366,0.00250461296353609
364,0.00266126311089658
362,0.00273724744509899
360,0.00286255772958383
358,0.00294506598271496
356,0.00302531265630112
354,0.00315138725660318
352,0.00325785846625682
350,0.00334820841788777
348,0.003448720418114
346,0.00362229737926529
344,0.00373085845701555
342,0.00381515395602589
340,0.00403204933332738
338,0.00419309190013887
336,0.00431329801279685
334,0.0044350623533175
332,0.00462020933619174
330,0.00472330579162491
328,0.00501318396456633
326,0.00520552320121919
324,0.00544845170450341
322,0.00568818564567668
320,0.00591672454150904
318,0.00628514334045074
316,0.00662011482700476
314,0.00689350666249827
312,0.0072642872549251
310,0.00767418242537801
308,0.00800676626075494
306,0.00837065784180999
304,0.00877560366099684
302,0.00922935571158585
300,0.00966540291424288
298,0.0101276857145102
296,0.0105779608019591
294,0.0112819169337521
292,0.0118553578049939
290,0.0124772783088178
288,0.0131197222977269
286,0.0139114900693785
284,0.0146015510190169
282,0.0152220058243946
280,0.016012529264782
278,0.0166612614263167
276,0.01738611015558
274,0.0181429075065737
272,0.0189326027829967
270,0.0195103493136379
268,0.0202500508854765
266,0.0209110075202126
264,0.0215355751047002
262,0.0220739142921345
260,0.0227652136265295
258,0.0232906011214085
256,0.0238285981106938
254,0.024454936904548
252,0.0251826855880402
250,0.0260491719308593
248,0.0269249976111302
246,0.0280115997005614
244,0.0295484688879684
242,0.0314256542528373
240,0.0339113412267146
238,0.0376329383850315
236,0.0423037448459581
234,0.0495466913425188
232,0.0594288855063495
230,0.0734395710748861
228,0.091818616867178
226,0.115197811791717
224,0.143867176789544
222,0.175022768072969
220,0.212263224987117
218,0.253653533525517
216,0.296117577736257
214,0.338541486437632
212,0.377956627018182
210,0.415079373595432
208,0.455051261109661
206,0.497772795011949
204,0.551053579185686
202,0.626551011746884
200,0.743108804950294
