Wavelength	I1	I1 dark	R1	R1dark	XCorrect	I1c	R1c	I1c/R1c	Abs	Percent T
nm	uA	uA	uA	uA		uA	uA	uA/uA	OD	T*100
	Abs Detector Raw	Dark Offset for Abs Detector	Ref Detector Raw	Dark Offset for Ref Detector	Linear interp	Dark subtracted Abs Detector	Corrected Ref Detector	Corrected Intensity 	-Log(T)	% Transmittance
800	0.143144193687668	2.26028215458835E-4	0.208825823979416	0.00494582690170046	1.35067892074585	0.142918165472209	0.275376414414596	0.518992034143624	6.61370632823197E-4	99.8478296806107
798	0.144003435017242		0.21029069145098		1.34199333190918	0.143777406801783	0.275571438966926	0.521742773274262	7.28574049891899E-4	99.8323802644176
796	0.155831021563609		0.227435939032617		1.33337259292603	0.15560499334815	0.296662217712402	0.524519079470379	6.33555627301523E-4	99.854224781144
794	0.166286062873151		0.242229778008538		1.32502686977386	0.166060034657693	0.314407610982668	0.528167985942449	6.36136123131705E-4	99.8536314679524
792	0.162211576347684		0.236108971834875		1.31713449954987	0.161985548132225	0.30447295321593	0.532019499339063	5.48668673265091E-4	99.8737441390566
790	0.152298581087002		0.222005769986932		1.30966234207153	0.152072552871543	0.284275233430918	0.53494830005477	5.64990324190898E-4	99.8699907555219
788	0.149260406355489		0.217962099196205		1.30193436145782	0.14903437814003	0.277333204449872	0.537383824759319	5.99263982436928E-4	99.862109525127
786	0.152448488007789		0.222658193766674		1.29363858699799	0.15222245979233	0.281641118643191	0.540483792017528	5.8463235711235E-4	99.8654739924303
784	0.156386776795153		0.228361819995104		1.28498160839081	0.156160748579694	0.287085442145391	0.543952167733425	6.28574875431271E-4	99.8553699763733
782	0.162064161339728		0.236576781815306		1.27644824981689	0.161838133124269	0.295664927002888	0.547370074512385	6.61736799831781E-4	99.8477454958761
780	0.171268055422214		0.249837625725941		1.268270611763	0.171042027206755	0.310589071510562	0.550702013998387	5.87402980276039E-4	99.8648368931246
778	0.184025275219871		0.268339874187166		1.26044166088104	0.183799247004413	0.331992830426672	0.553624145341321	8.35574685584413E-4	99.8077867851471
776	0.199909771768949		0.291124404049127		1.25292003154755	0.19968374355349	0.358558871907785	0.556906436287666	7.05645693433444E-4	99.8376510033295
774	0.223070273385389		0.324384417038785		1.24577045440674	0.22284424516993	0.397947157590123	0.559984512816785	7.74278395261355E-4	99.82187464278
772	0.276156444437915		0.401006567001172		1.23883104324341	0.275930416222456	0.490652339845185	0.562374605835	6.31664252077305E-4	99.8546596524718
770	0.373110319248871		0.540889918798183		1.23221707344055	0.372884291033412	0.660399460444438	0.564634457427429	6.63602436001023E-4	99.8473165722469
768	0.443635799313745		0.640275912968928		1.22665858268738	0.443409771098286	0.779333102913875	0.568960524633698	6.47167352490945E-4	99.8510951835468
766	0.41785177323269		0.601218110695796		1.22236526012421	0.417625745017232	0.728862525284824	0.572982874725289	7.57511818380037E-4	99.8257284873787
764	0.352021448178353		0.506586067922071		1.2186872959137	0.351795419962894	0.611342588850611	0.57544726374177	6.41566439907642E-4	99.8523829292702
762	0.321718967830685		0.46446943906204		1.214359998703	0.321492939615227	0.55802709306703	0.576124248462985	6.11071625974365E-4	99.8593945006167
760	0.328536009124247		0.474330459835626		1.20898902416229	0.328309980908788	0.567480869327563	0.57853929295946	5.79745563624381E-4	99.866597710815
758	0.346769451739378		0.500377103103131		1.2031888961792	0.346543423523919	0.596097410345451	0.58135368063936	6.99277251044901E-4	99.8391150214482
756	0.372105414772906		0.536322610161648		1.19780671596527	0.371879386557447	0.636486679696788	0.58426892253991	5.93269898173101E-4	99.8634878203967
754	0.397345997252616		0.57180606583041		1.1931779384613	0.397119969037157	0.67636513128064	0.587138441458749	5.74145971412257E-4	99.8678853528441
752	0.420172136077423		0.603888235502021		1.18890511989594	0.419946107861964	0.712085696107724	0.589740968197225	6.15602452563366E-4	99.8583527115576
750	0.449910941195409		0.645709809126414		1.1848680973053	0.44968491297995	0.759220800440362	0.592297935882584	4.97309699645769E-4	99.8855557473416
748	0.492778914046578		0.706384897079769		1.18107759952545	0.492552885831119	0.828453973219278	0.594544659997361	4.89586169143228E-4	99.8873321364709
746	0.54855410272752		0.785036997290393		1.17750906944275	0.548328074512061	0.918564428124894	0.596940244715754	6.13541092488823E-4	99.8588266860575
744	0.600388991436413		0.85711123955611		1.174187541008	0.600162963220954	1.00060201041674	0.599801876243473	5.2369476070159E-4	99.8794874997804
742	0.650698509057652		0.926760920674288		1.17108881473541	0.650472480842193	1.07952734557135	0.602553037225679	5.99629726230842E-4	99.862025425667
740	0.725674323272223		1.0313105955495		1.16803753376007	0.725448295056765	1.1988325731096	0.605128949053376	6.36564982984881E-4	99.8535328639075
738	0.836016239335225		1.1851424336189		1.16498303413391	0.835790211119766	1.37490902376795	0.60788764687083	6.74428485034581E-4	99.8448276194342
736	0.932760641414474		1.31801695884479		1.16204738616943	0.932534613199015	1.52585087672901	0.611157110711962	6.11354669862363E-4	99.8593294190114
734	0.981998595624467		1.38407133358085		1.15931880474091	0.981772567409008	1.59884613399097	0.614050687265541	6.24059271509639E-4	99.8564082341988
732	0.991876871647007		1.39674323294428		1.15665113925934	0.991650843431548	1.60982405531734	0.615999518802113	5.48905093576079E-4	99.873689770014
730	0.988435824907827		1.39329354545806		1.15388596057892	0.988209796692368	1.60199494084396	0.61686199593849	5.64071468290164E-4	99.8702020550691
728	0.986536776148326		1.39327960014562		1.15089321136475	0.986310747932867	1.59782391473483	0.617283756262061	5.39339664257488E-4	99.8758895337247
726	0.992529046632194		1.40544412890561		1.1476241350174	0.992303018416735	1.60724565243056	0.617393499815116	5.44208106229103E-4	99.8747699310877
724	1.00796347711251		1.4310671659126		1.14410185813904	1.00773744889705	1.6316280738941	0.617626936567691	5.80021719502761E-4	99.8665342084211
722	1.01752006948155		1.44760859773127		1.14027833938599	1.01729404126609	1.64503710861552	0.618401880382053	6.20255512757044E-4	99.8572828282036
720	1.00271486324188		1.42820079019163		1.13600122928619	1.00248883502643	1.61681938788504	0.620037613686575	6.41471533152954E-4	99.8524047501015
718	0.950496255967629		1.35461855293682		1.13137769699097	0.950270227752171	1.52698962047313	0.622316101570966	6.915105345356E-4	99.8409005127885
716	0.852681860606523		1.21490006533593		1.12621939182281	0.852455832391064	1.36267392654283	0.625575800480592	7.19230129564688E-4	99.8345281983223
714	0.725511790313889		1.03371349043736		1.12039887905121	0.72528576209843	1.15263013702948	0.629244142416415	7.97476149957445E-4	99.8165428192961
712	0.595426008057807		0.850454942585636		1.11375534534454	0.595199979842348	0.941690297130522	0.632054914079518	0.00120206818836626	99.7235962713382
710	0.487536749760884		0.700387084298559		1.10628998279572	0.487310721545425	0.769359696681002	0.633397776940579	0.00191765091600497	99.5594179815019
708	0.408737117812568		0.592157050551338		1.09837675094604	0.408511089597109	0.64497915595134	0.63337099474875	0.00253190206506497	99.4187041054939
706	0.350984072083865		0.513859657370546		1.09038031101227	0.350758043868406	0.554909620745065	0.632099409985812	0.00292599927104669	99.3285282837069
704	0.308874139085624		0.457653146364668		1.0826700925827	0.308648110870165	0.490132675475838	0.629723595902923	0.00302193119924584	99.3065898863628
702	0.284408290184361		0.426454458440015		1.07555782794952	0.284182261968903	0.453356908199326	0.626840038894824	0.00286810368158479	99.3417706049025
700	0.270535689836962		0.409354100842329		1.0694442987442	0.270309661621503	0.432492122930789	0.625004820410938	0.0020552637583363	99.527876056245
698	0.272359196604577		0.414181403984661		1.0649927854538	0.272133168389119	0.435832937144374	0.62439789468911	0.00115859201737896	99.7335798592586
696	0.289348942935616		0.440674049447649		1.06259047985077	0.289122914720157	0.463000661079623	0.624454647744954	7.67245038152533E-4	99.8234912614708
694	0.316417524675599		0.481556708891224		1.06203079223633	0.316191496460141	0.506175432587789	0.624667805080211	7.85379219387816E-4	99.819323169163
692	0.343137978975568		0.520983558404092		1.06277585029602	0.342911950760109	0.548432438882284	0.625258329829961	6.25637888112831E-4	99.8560452668943
690	0.362575124588819		0.549425250490152		1.06392598152161	0.36234909637336	0.579285805159662	0.625510055910122	6.52668631522453E-4	99.8498303614503
688	0.375786541772357		0.568913990341478		1.06461536884308	0.375560513556898	0.600409174336192	0.625507619819625	6.26979610552188E-4	99.8557367691001
686	0.383087719721698		0.579750249453452		1.0645604133606	0.38286169150624	0.611914033673191	0.625678886963911	5.49058078085469E-4	99.8736545885291
684	0.382802434993834		0.57940521405444		1.06376242637634	0.382576406778376	0.611088311532265	0.62605747738668	5.56761834543196E-4	99.871882989949
682	0.376972096882366		0.570803032387152		1.06245732307434	0.376746068666907	0.6011991317824	0.626657705825276	4.80440696867958E-4	99.8894356088459
680	0.376271555808505		0.570414492654818		1.06094348430634	0.376045527593046	0.599930296510167	0.626815364685742	6.60096666914986E-4	99.8481225761525
678	0.382327979429324		0.579932798586023		1.05921316146851	0.382101951213865	0.609033768080954	0.627390419447277	5.77594860793755E-4	99.8670922690356
676	0.390409912075253		0.592543730542468		1.05730748176575	0.390183883859794	0.621271659789252	0.62804069316819	5.92351368677644E-4	99.8636990311302
674	0.397859125912675		0.604261282070354		1.05524814128876	0.397633097697216	0.632426520112348	0.628741972469115	5.53385064460235E-4	99.8726595268652
672	0.403965278842377		0.613859371631612		1.05312037467957	0.403739250626919	0.641259260373426	0.629603774285938	5.66916464765568E-4	99.8695478228511
670	0.410504148750331		0.624235859627259		1.0509113073349	0.410278120534873	0.650818897911089	0.630402899872342	5.41457688635473E-4	99.8754024470548
668	0.415210775013263		0.631803505165867		1.0485315322876	0.414984746797804	0.657280041916573	0.631366723973154	6.05045541403139E-4	99.8607801164982
666	0.418340844580834		0.63698119313346		1.04595601558685	0.418114816365375	0.661081193373748	0.632471201051079	6.30965018084095E-4	99.8548204231736
664	0.421608885644436		0.64248445483022		1.04322910308838	0.421382857428977	0.665098850998065	0.633564254090408	6.60428678552016E-4	99.8480462437851
662	0.426391630071125		0.650068970485949		1.04042720794678	0.426165601855667	0.671203671061207	0.634927400176279	6.12928912642069E-4	99.8589674467783
660	0.432935469461481		0.66031299937568		1.03775990009308	0.432709441246023	0.68011377143088	0.636230965204031	4.89763645458262E-4	99.8872913170897
658	0.441013271248052		0.67296838567765		1.03528940677643	0.440787243032593	0.691596678588425	0.637347252639004	5.87240751604603E-4	99.864874197174
656	0.452721115134375		0.691086030258576		1.03309750556946	0.452495086918916	0.708849732558909	0.638351213430572	5.53478816335582E-4	99.8726379671896
654	0.469044230608702		0.716351742743068		1.03115320205688	0.468818202393243	0.733568488082037	0.639092613723088	5.96447404738817E-4	99.862757173933
652	0.486326485483493		0.742800621116388		1.02945709228516	0.486100457268034	0.759589850980914	0.639951227152781	5.06458575389157E-4	99.8834515739046
650	0.499029666890253		0.76232227203936		1.02793705463409	0.498803638674794	0.778535312264046	0.640694944490355	5.03734155565248E-4	99.8840781655848
648	0.50245335919835		0.767888151228545		1.02666783332825	0.502227330982891	0.783288343071059	0.641178099260096	5.97837609560034E-4	99.8624375072781
646	0.502864079106377		0.768803981913362		1.02560043334961	0.502638050890918	0.783413254797594	0.641600136087539	5.35198110342995E-4	99.8768419827445
644	0.506248979605547		0.77448985011574		1.02465677261353	0.506022951390088	0.788518495210526	0.641738848820515	6.22702048661376E-4	99.8567202980546
642	0.51375276161902		0.786385566620942		1.02378344535828	0.513526733403561	0.80002506906964	0.641888302326262	6.51890580948872E-4	99.8500092453427
640	0.525397342566143		0.804497305745348		1.02288675308228	0.525171314350684	0.817850616116511	0.642135989142385	6.12737043488547E-4	99.8590115639859
638	0.539263875103509		0.826044030207592		1.02184903621674	0.53903784688805	0.839038407687418	0.642447165647353	6.72593943744401E-4	99.8452493835905
636	0.554124469831726		0.849115913965499		1.02063095569611	0.553898441616267	0.861586122729989	0.642882269112234	6.509228979627E-4	99.8502317286272
634	0.568902815414765		0.871996822992723		1.01923584938049	0.568676787199306	0.883729458457036	0.643496470279714	6.63070849197007E-4	99.8474387878186
632	0.582699990042251		0.893293087250889		1.0177036523819	0.582473961826792	0.904074251440822	0.644276685126807	6.68849062339436E-4	99.846110343712
630	0.595811777709586		0.913627097179404		1.01619136333466	0.595585749494127	0.923394058880167	0.64499629791469	6.53264638109699E-4	99.8496933320422
628	0.610537478029163		0.936292608868623		1.01451146602631	0.610311449813704	0.944861989152145	0.645926555222479	6.56878762945338E-4	99.8488624033291
626	0.626122305847748		0.960262105232806		1.01275491714478	0.625896277632289	0.967501258308274	0.646920375821217	5.81516213560408E-4	99.866190548321
624	0.641328847535033		0.983781797521639		1.01092803478241	0.641102819319574	0.989532724153147	0.647884404094101	5.77896676889292E-4	99.8670228657007
622	0.654420293405573		1.00409556727689		1.0092089176178	0.654194265190115	1.00835082802215	0.648776444675803	5.77045248264888E-4	99.8672186538785
620	0.66461141763243		1.01991513691583		1.00772297382355	0.664385389416971	1.02280789142707	0.6495700658801	6.27072209512024E-4	99.8557154781633
618	0.673151443233071		1.03315932387463		1.0068142414093	0.672925415017612	1.0352199919616	0.650031317249301	5.80273174303423E-4	99.8664763861065
616	0.680882974269072		1.04502491983552		1.00664889812469	0.680656946053613	1.04699447286436	0.650105577149302	5.0393145024254E-4	99.8840327894787
614	0.688384275508629		1.05684110692209		1.00700271129608	0.688158247293171	1.05926139898008	0.649658571487423	5.7945102818542E-4	99.8666654396566
612	0.695664039273486		1.06826068664941		1.00780045986176	0.695438011058028	1.07160920463158	0.648966067156095	6.06886694473443E-4	99.8603567664447
610	0.702958942503615		1.07972399959189		1.00835275650024	0.702732914288156	1.08375553305844	0.648423830700073	6.44049504435133E-4	99.8518120281614
608	0.712624749960109		1.09476631093315		1.0085117816925	0.71239872174465	1.09909679807554	0.648167407085546	6.3454010699343E-4	99.8539984270245
606	0.725787465971967		1.11523125988702		1.00798010826111	0.725561437756508	1.11914563094127	0.648317267830698	7.12514458138697E-4	99.8360719919924
604	0.73924211466088		1.13583737247558		1.00688087940216	0.739016086445422	1.13867307391589	0.649015159288826	6.6891680825507E-4	99.846094768645
602	0.753220663494185		1.15726516139142		1.00539457798004	0.752994635278726	1.15853561099754	0.649953810768384	6.50044920465493E-4	99.8504335878467
600	0.769288390785939		1.18177964035841		1.00393652915955	0.76906236257048	1.18146645407932	0.650938805680934	6.76064510040714E-4	99.8444514960114
598	0.788220481164391		1.21058012791423		1.00287997722626	0.787994452948932	1.20910650034264	0.651716331626396	7.11843048134629E-4	99.8362263365492
596	0.807787937140891		1.24012553459548		1.00218975543976	0.807561908925432	1.23788444917779	0.652372609949032	6.17361280812135E-4	99.8579483008563
594	0.828063232470031		1.27089754924303		1.00178515911102	0.827837204254572	1.26821164759259	0.652759502584632	6.01467048648332E-4	99.8616029511537
592	0.847948583647897		1.30106206084125		1.00154709815979	0.847722555432439	1.29812145297995	0.653037936848217	5.62873384090394E-4	99.8704775664586
590	0.866018297625987		1.32857673907604		1.00122630596161	0.865792269410529	1.3252540886529	0.653302847222747	5.9398975094314E-4	99.8633222945801
588	0.883152345409086		1.35456063667729		1.00070452690125	0.882926317193627	1.35056564971539	0.653745574959417	5.810143105012E-4	99.8663059611977
586	0.899120009224677		1.37868331236215		0.999973237514496	0.898893981009218	1.37370072083091	0.654359401125965	5.84866793676419E-4	99.8654200840496
584	0.912513544327409		1.39891023855086		0.999053955078125	0.91228751611195	1.39264565869624	0.655075115780715	5.94132435698E-4	99.8632894851112
582	0.926243542136316		1.41952908734542		0.998229086399078	0.926017513920857	1.41207815570816	0.655783470750211	5.94232551191106E-4	99.8632664641847
580	0.939400024017339		1.43938256138718		0.997582137584686	0.93917399580188	1.43096846381802	0.656320540633042	6.12913567768101E-4	99.8589709750831
578	0.952825720985177		1.45955073879683		0.997147619724274	0.952599692769718	1.45045582553546	0.656758845046554	6.38944751248221E-4	99.8529857060979
576	0.969576176545687		1.4849226735099		0.996688485145569	0.969350148330228	1.47507588129644	0.657152734053428	6.42699444412469E-4	99.8521224307909
574	0.98558937319801		1.50903251106005		0.996220171451569	0.985363344982551	1.49840149437025	0.657609691851436	7.01222986521909E-4	99.8386677211001
572	1.00196267574489		1.53388054929084		0.9957315325737	1.00173664752943	1.52240851432968	0.6579946434223	7.47284445091962E-4	99.8280793507976
570	1.0219788161068		1.56410638901381		0.995352268218994	1.02175278789135	1.55191400201589	0.658382350158654	8.29107947826559E-4	99.809272955512
568	1.0395339793057		1.59053409764845		0.995181918144226	1.03930795109024	1.57794877666873	0.65864492336967	8.82776055261108E-4	99.7969397483211
566	1.05817987614282		1.61850270593513		0.995282471179962	1.05795384792736	1.60594487795382	0.658773450104545	9.2008103808639E-4	99.7883677691977
564	1.0808081673732		1.6524978681528		0.995623111724854	1.08058213915774	1.64034089003906	0.658754619676651	9.44215843771999E-4	99.7828224398238
562	1.10353283189421		1.68654725766519		0.996170461177826	1.10330680367875	1.67516167280095	0.658627057670182	9.84223150256739E-4	99.7736308468901
560	1.12895512030581		1.72460847943693		0.99668163061142	1.12872909209035	1.71395617663037	0.658551897347474	0.00100292436546866	99.7693345731688
558	1.15696746394388		1.76651953883977		0.997178435325623	1.15674143572842	1.75660331778116	0.658510332992854	0.00104221911747181	99.7603079010147
556	1.18512807235186		1.80860287485326		0.997675478458405	1.18490204413641	1.79946440828994	0.658474843224287	0.00110038681124343	99.7469472927276
554	1.2140942669993		1.85132371086419		0.99818366765976	1.21386823878385	1.84302424809955	0.658628468961023	0.0010415595689714	99.7604594037719
552	1.2431222875132		1.89402034033226		0.998678505420685	1.24289625929774	1.88657811170114	0.658809858753748	9.74854738780508E-4	99.7757831434284
550	1.27095298228725		1.93473584920277		0.999059557914734	1.27072695407179	1.92797516654837	0.659099233288752	9.07373452930105E-4	99.7912876491089
548	1.29924763000133		1.9760500726705		0.999196529388428	1.29902160178587	1.96952052143498	0.65956235928906	8.56510341192307E-4	99.8029755541169
546	1.32734643268447		2.01679138232216		0.99907249212265	1.32712040446901	2.00997955281979	0.660265624397619	8.09813837351925E-4	99.8137072138235
544	1.35614704780376		2.05856176545603		0.998806416988373	1.3559210195883	2.05116477745767	0.661049289891233	7.99756837236469E-4	99.8160186364405
542	1.38035546079297		2.09315415911664		0.998482644557953	1.38012943257751	2.08503977793792	0.66191995336532	7.92467756624439E-4	99.817693935442
540	1.40219464283461		2.12401168829021		0.99831360578537	1.40196861461915	2.11549228097945	0.662715069785107	7.64559422143727E-4	99.824108557813
538	1.42447976847798		2.15558057000001		0.998360693454742	1.42425374026252	2.14710919348749	0.663335495270806	7.5444681349604E-4	99.8264330034105
