Wavelength	I1	I1 dark	R1	R1dark	XCorrect	I1c	R1c	I1c/R1c	Abs	Percent T
nm	uA	uA	uA	uA		uA	uA	uA/uA	OD	T*100
	Abs Detector Raw	Dark Offset for Abs Detector	Ref Detector Raw	Dark Offset for Ref Detector	Linear interp	Dark subtracted Abs Detector	Corrected Ref Detector	Corrected Intensity 	-Log(T)	% Transmittance
800	0.142779669152991	2.12045192824889E-4	0.208869695744377	0.00493237886174566	1.35067892074585	0.142567623960166	0.275453835066837	0.517573567002882	0.00184997429829733	99.5749336510789
798	0.143785989263106		0.210526333845058		1.34199333190918	0.143573944070281	0.275905716668441	0.52037321228402	0.0018700844601873	99.5703229047821
796	0.155322954625332		0.227328089149015		1.33337259292603	0.155110909432507	0.296536344881361	0.523075542374288	0.0018304319360806	99.5794144199679
794	0.165847783532251		0.242263922753275		1.32502686977386	0.165635738339426	0.314470672701191	0.526712831173331	0.00183431145657474	99.5785248883951
792	0.16197284610877		0.236434416169513		1.31713449954987	0.161760800915945	0.30491932005414	0.530503612848224	0.00178787293580203	99.5891732544969
790	0.15195604027111		0.222142473935361		1.30966234207153	0.151743995078285	0.284471881835691	0.533423528888282	0.00180463393035525	99.5853298223329
788	0.148669095627871		0.217719629104401		1.30193436145782	0.148457050435047	0.277035032771037	0.535878256804232	0.00181771806770425	99.5823296264749
786	0.151883603061316		0.222415112712958		1.29363858699799	0.151671557868491	0.281344056515741	0.539096363885708	0.00170090466004804	99.6091181681467
784	0.155955139071048		0.228294526446789		1.28498160839081	0.155743093878223	0.287016251657454	0.542628136834907	0.00168697726921239	99.6123125844291
782	0.161564573557911		0.236401028108122		1.27644824981689	0.161352528365086	0.295457752218018	0.546110322554759	0.00166240140667093	99.6179496069339
780	0.170481323629093		0.24930438331169		1.268270611763	0.170269278436268	0.309929831581482	0.549380088929915	0.00163115241958101	99.6251177201559
778	0.183349517623695		0.267874523847229		1.26044166088104	0.18313747243087	0.331423233941126	0.55257885892032	0.00165633228254282	99.6193417451057
776	0.199442688106875		0.291104907894419		1.25292003154755	0.19923064291405	0.358551294103659	0.555654507989174	0.00168304074591185	99.6132154924397
774	0.222342771252065		0.323973143541893		1.24577045440674	0.22213072605924	0.397451558389861	0.558887545841126	0.00162586254792232	99.6263311993003
772	0.274327081423374		0.399282562796635		1.23883104324341	0.274115036230549	0.488533249767289	0.561098014026932	0.00161863448472588	99.6279893170992
770	0.371009243817813		0.539157032452568		1.23221707344055	0.370797198624988	0.658280739207476	0.563281251508896	0.00170568411038632	99.6080219667586
768	0.44165315802528		0.63938688953498		1.22665858268738	0.441441112832455	0.778259070842043	0.567216148672491	0.00198071602912857	99.5449617303508
766	0.417481179362101		0.602651699252079		1.22236526012421	0.417269134169276	0.730631332550194	0.571107637435752	0.00218118578081153	99.4990225127814
764	0.3514299967647		0.507621524460902		1.2186872959137	0.351217951571875	0.612620875535403	0.573303923515383	0.00226218180664678	99.4804676513326
762	0.32063825555473		0.464567994359498		1.214359998703	0.320426210361905	0.558163105439705	0.574072716808258	0.00216031901373566	99.5038033075946
760	0.327480813205611		0.474493585445326		1.20898902416229	0.327268768012786	0.567694344931951	0.576487630948686	0.00212261250237774	99.5124428467253
758	0.34574067488802		0.500301972183021		1.2031888961792	0.345528629695195	0.596023194188964	0.579723462214204	0.00191882641871556	99.5591485048859
756	0.370985954938512		0.535970838922819		1.19780671596527	0.370773909745687	0.636081433897009	0.582903210166201	0.00160960947969332	99.6300596921212
754	0.396273430423405		0.57158554581176		1.1931779384613	0.396061385230581	0.676118057563987	0.585787320423841	0.00157469466503518	99.6380697061685
752	0.418799252782127		0.603412105743181		1.18890511989594	0.418587207589302	0.711535611443259	0.588287080586524	0.00168758997929978	99.6121720497729
750	0.44842379642596		0.645248207260583		1.1848680973053	0.448211751233135	0.758689797269395	0.590770764080783	0.00161853394444303	99.6280123812361
748	0.491312390309762		0.706100719834811		1.18107759952545	0.491100345116937	0.828134221019711	0.593020228668038	0.00160456099590837	99.6312178548087
746	0.546891177319125		0.78445272483179		1.17750906944275	0.5466791321263	0.917892277194877	0.595580925680057	0.00160361997189737	99.6314337347558
744	0.59875531315925		0.856905123834277		1.174187541008	0.598543267966425	1.00037578242513	0.598318430415644	0.00159913378441433	99.6324629156875
742	0.650944816429715		0.929147743479692		1.17108881473541	0.65073277123689	1.08233827591069	0.601228641470115	0.00155524819218315	99.6425313156968
740	0.725055894929968		1.03270946242623		1.16803753376007	0.724843849737143	1.20048220994178	0.603793911925022	0.00159576513112882	99.6332357289264
738	0.834227285179776		1.18508747359714		1.16498303413391	0.834015239986951	1.37486066301344	0.606618010409103	0.00158244617422421	99.6362913310048
736	0.931060738161989		1.31872463828532		1.16204738616943	0.930848692969164	1.5266888610328	0.609717354156528	0.00163566738204042	99.6240820143223
734	0.980734657030885		1.38552453425864		1.15931880474091	0.98052261183806	1.6005464474294	0.612617405394799	0.00163894943531534	99.6233291373626
732	0.991124145514761		1.39934475392998		1.15665113925934	0.990912100321936	1.61284866221999	0.614386286533545	0.00168776458092744	99.6121320021909
730	0.987479592917019		1.39567668265557		1.15388596057892	0.987267547724194	1.6047603269028	0.615211836417734	0.0017274037034546	99.6030405734961
728	0.985631603117274		1.39591115531089		1.15089321136475	0.98541955792445	1.60086803096776	0.615553274137621	0.00175854271011039	99.5958992703373
726	0.992083096011418		1.40850377000666		1.1476241350174	0.991871050818593	1.61077240369785	0.615773555929786	0.00168522641644337	99.6127141710302
724	1.00763332208454		1.43416214636898		1.14410185813904	1.00742127689171	1.63518443271265	0.616090305617986	0.00166187526658125	99.6180702923924
722	1.01643055990339		1.44959708038934		1.14027833938599	1.01621851471056	1.64731986682743	0.616892040929303	0.001681889927208	99.6134794536646
720	1.00226432888089		1.43132924721038		1.13600122928619	1.00205228368807	1.62038859589402	0.618402453724503	0.00178830355176325	99.5890745089036
718	0.951660047466885		1.35984309637298		1.13137769699097	0.95144800227406	1.53291576720623	0.620678593454676	0.00183578114684523	99.5781879065828
716	0.853567952216752		1.21957239258777		1.12621939182281	0.853355907023927	1.36795113754217	0.623820459374864	0.00193955626973177	99.5543964365393
714	0.727479831993036		1.03932444073232		1.12039887905121	0.727267786800211	1.15893170661926	0.62753291039188	0.0019801506475973	99.5450913219571
712	0.596830574702585		0.853707946723029		1.11375534534454	0.59661852950976	0.945328325703354	0.631123085268663	0.00184281428155302	99.5765753115169
710	0.489714859493391		0.70316934136752		1.10628998279572	0.489502814300566	0.772452557237846	0.633699519425429	0.00171080792300203	99.6068467967987
708	0.411515178409377		0.594795934207785		1.09837675094604	0.411303133216553	0.647892415422466	0.634832455861299	0.00153095103098181	99.6481061007145
706	0.353051318779706		0.515229410477866		1.09038031101227	0.352839273586881	0.556417836042222	0.634126461683207	0.0015355078296073	99.6470605567583
704	0.310564198893324		0.458471767577217		1.0826700925827	0.310352153700499	0.491033531970482	0.632038615479229	0.00142828487415581	99.671665454658
702	0.285790990068973		0.427236215028688		1.07555782794952	0.285578944876148	0.454212196762468	0.628734646299013	0.00155743984737285	99.6420284736646
700	0.271222680190662		0.40999056324213		1.0694442987442	0.271010634997837	0.433187165945279	0.625620185229752	0.00162787814629301	99.6258688259264
698	0.271808022900725		0.413948564324947		1.0649927854538	0.2715959777079	0.435599286652141	0.623499592470155	0.00178384812723541	99.5900961978722
696	0.288724929876586		0.440832149422604		1.06259047985077	0.288512884683761	0.463182946367102	0.622891855036251	0.00185549534128817	99.573667795725
694	0.315365628927849		0.48131148855529		1.06203079223633	0.315153583735025	0.505929283272671	0.622920226511522	0.00200206967529946	99.5400673655298
692	0.341684158790947		0.520310934505413		1.06277585029602	0.341472113598123	0.547731882698533	0.623429317124608	0.00189790272596667	99.5639452391359
690	0.361093561484387		0.548899319095769		1.06392598152161	0.360881516291563	0.578740560803788	0.623563545970148	0.00200624652948642	99.5391100373454
688	0.373909541962962		0.567852618885758		1.06461536884308	0.373697496770138	0.599293538962398	0.623563366655259	0.00197899100428888	99.5453571253646
686	0.381638911438913		0.579540595523625		1.0645604133606	0.381426866246088	0.611705160649966	0.623546915708222	0.00203142299381468	99.5333398276833
684	0.381548700867985		0.579365617496981		1.06376242637634	0.38133665567516	0.611060495721839	0.624057124204522	0.00194662335478649	99.552776444363
682	0.375772312951613		0.571057205664945		1.06245732307434	0.375560267758788	0.601483468011252	0.62439000859083	0.00205488020517092	99.5279639557011
680	0.374942270840672		0.570256375895196		1.06094348430634	0.374730225647847	0.599776811174653	0.62478278363904	0.00207067642818029	99.5243439757367
678	0.380813435978345		0.57971151440722		1.05921316146851	0.38060139078552	0.608813625307257	0.62515255073905	0.00212946986785983	99.5108715907419
676	0.389277333039251		0.592959143748816		1.05730748176575	0.389065287846426	0.621725097993608	0.625783467809155	0.0021560500233989	99.5047814062817
674	0.396211991214667		0.603893111295458		1.05524814128876	0.395999946021842	0.632052199605628	0.626530445221024	0.00208365859012823	99.5213689855075
672	0.402770979225568		0.614285554796413		1.05312037467957	0.402558934032743	0.6417222449525	0.627310237722147	0.0021518639945246	99.505740506415
670	0.408677870986633		0.62376930964133		1.0509113073349	0.408465825793808	0.65034272795269	0.628077793811392	0.00214622109283102	99.5070334189039
668	0.413677869135599		0.63177412833493		1.0485315322876	0.413465823942774	0.657263340076956	0.629071787107985	0.00218652612846242	99.4977990201368
666	0.417751136026061		0.638358163647977		1.04595601558685	0.417539090833236	0.662535510024982	0.630213904787522	0.00218373910417186	99.4984375354393
664	0.420802315213088		0.643541933158514		1.04322910308838	0.420590270020263	0.666216072552687	0.631312103307147	0.00220697935203472	99.4931132530059
662	0.425198786142786		0.650670971521141		1.04042720794678	0.424986740949961	0.671844001024096	0.632567590545054	0.00223006111880222	99.4878255601947
660	0.430998444627913		0.659966186022573		1.03775990009308	0.430786399435088	0.679767818276809	0.633725792620072	0.00220318267954759	99.4939830416692
658	0.439396310194943		0.673088418025804		1.03528940677643	0.439184265002118	0.691734869420245	0.634902596959158	0.00225625533853567	99.4818251906671
656	0.450738507720422		0.690863679185246		1.03309750556946	0.450526462527597	0.708633915356223	0.635767570200366	0.00231479581511151	99.4684164986032
654	0.467449235497888		0.716692368046883		1.03115320205688	0.467237190305063	0.733933591944228	0.636620527297745	0.0022796076742949	99.4764761231025
652	0.484877135818874		0.743643370746809		1.02945709228516	0.484665090626049	0.760471269745081	0.637322026364671	0.00229440646156021	99.4730864734802
650	0.49738013381579		0.76297483154603		1.02793705463409	0.497168088622965	0.779219926099888	0.638033078942636	0.00231183590599939	99.4690944221964
648	0.501259922618646		0.769171248757598		1.02666783332825	0.501047877425821	0.784619464701203	0.638587111290477	0.00235636848077294	99.4588953799085
646	0.501045392590207		0.769316603371275		1.02560043334961	0.500833347397382	0.783952791902578	0.638856513517743	0.00239631846355889	99.449746752474
644	0.504495047422614		0.774963464920977		1.02465677261353	0.504283002229789	0.78901756745354	0.639127724186551	0.00239337608272003	99.4504205349712
642	0.511968852934742		0.786902517607646		1.02378344535828	0.511756807741917	0.800568082812567	0.639242081627844	0.0024459947502125	99.4383719554206
640	0.523841665997652		0.805456614823546		1.02288675308228	0.523629620804827	0.818845636486636	0.639472932959048	0.00241758132947342	99.4448778560114
638	0.537492936084706		0.826801387992651		1.02184903621674	0.537280890891881	0.83982605487682	0.639752586588524	0.00249796091487975	99.4264742181006
636	0.552121224600473		0.849513832054729		1.02063095569611	0.551909179407648	0.862005975735561	0.640261430829058	0.0024250300181959	99.4431722677094
634	0.567505342275818		0.873522927722953		1.01923584938049	0.567293297082993	0.885298625832422	0.640793152197184	0.00249137785946551	99.4279813405196
632	0.580032270631524		0.8930215445884		1.0177036523819	0.579820225438699	0.903811587600808	0.641527762415447	0.00252580917143803	99.4200989006457
630	0.593380401071352		0.913757091380545		1.01619136333466	0.593168355878527	0.923539823646705	0.642276965963776	0.00248813940888607	99.4287227586534
628	0.608296604014679		0.93706445701007		1.01451146602631	0.608084558821854	0.945658681132404	0.643027522460522	0.00261045659192771	99.4007230274032
626	0.623577573497076		0.960858570684525		1.01275491714478	0.623365528304252	0.968118951195999	0.643893529337645	0.00261828561854908	99.3989311467212
624	0.638979002878895		0.984999106476735		1.01092803478241	0.63876695768607	0.990776930903449	0.644713192003375	0.00270886563322124	99.378201853225
622	0.651961172016474		1.00516629999967		1.0092089176178	0.651749126823649	1.00944499291621	0.64565095809807	0.00267431885200064	99.3861073958793
620	0.662255213113036		1.02125571003059		1.00772297382355	0.662043167920211	1.02417236965172	0.646417719846653	0.00273982234876137	99.3711183805767
618	0.670589946356099		1.03434341078396		1.0068142414093	0.670377901163274	1.03642568720313	0.646817142261629	0.00273303251791664	99.3726719770121
616	0.677836022682126		1.04578708108735		1.00664889812469	0.677623977489301	1.04777523910332	0.646726465944366	0.00276718933183397	99.364856725995
614	0.684511268016781		1.05642428960198		1.00700271129608	0.684299222823956	1.05885520502131	0.646263265816579	0.00285515292434413	99.3447330425834
612	0.69199275571882		1.06820382629807		1.00780045986176	0.691780710525995	1.07156545368421	0.645579519335517	0.00287913172253169	99.3392480510821
610	0.700734955696095		1.08201676417013		1.00835275650024	0.70052291050327	1.08608100890908	0.645000607465659	0.00294289339269173	99.3246644639453
608	0.710504664519362		1.0973675389501		1.0085117816925	0.710292619326537	1.10173372968424	0.644704432830707	0.00296107265275117	99.3205068907093
606	0.721981996931997		1.1152737818595		1.00798010826111	0.721769951739172	1.11920204760047	0.644896918556056	0.00300980178371297	99.3093634599746
604	0.735322692679471		1.13591708683073		1.00688087940216	0.735110647486646	1.1387668773502	0.645532164754541	0.00300587109119197	99.3102622886611
602	0.750534973807651		1.15947093622392		1.00539457798004	0.750322928614826	1.16076680564083	0.646402813182269	0.00302930150089184	99.3049045936805
600	0.766559435108366		1.18413300460682		1.00393652915955	0.766347389915541	1.18384258339327	0.647338928896226	0.00308450237852802	99.2922832739212
598	0.784558281166818		1.21184059299708		1.00287997722626	0.784346235973993	1.21038408230623	0.648014334821328	0.0031858342737608	99.2691185735665
596	0.80382478804784		1.24133326194662		1.00218975543976	0.803612742855015	1.23910829864433	0.648541167655987	0.00317553090813828	99.2714736994065
594	0.823568157414751		1.27175230448864		1.00178515911102	0.823356112221926	1.26908140075915	0.648781167015292	0.00325643528155978	99.2529822180066
592	0.842480143728342		1.30073383299832		1.00154709815979	0.842268098535517	1.29780618618173	0.648993746141365	0.00326077294980928	99.2519908990339
590	0.86098533744102		1.32916373004049		1.00122630596161	0.860773292248195	1.32585526397924	0.649221159830665	0.00331587449796036	99.2393990019235
588	0.878073032380065		1.35541599433988		1.00070452690125	0.87786098718724	1.35143506751493	0.649576889255569	0.00335921145138774	99.2294966918082
586	0.894544289028116		1.38056207212026		0.999973237514496	0.894332243835292	1.37559287798879	0.650143118756811	0.00339224280929238	99.2219498301432
584	0.908663399994649		1.40212118092084		0.999053955078125	0.908451354801824	1.395866998688	0.650815124690025	0.00342759749875939	99.2138727796901
582	0.92114646116303		1.42110150066921		0.998229086399078	0.920934415970205	1.41366120864846	0.651453410715481	0.00347133628608427	99.2038812275311
580	0.933235094232402		1.43952742710926		0.997582137584686	0.933023049039577	1.43112639479916	0.651950136920306	0.00351452912668274	99.1940153772001
578	0.947326737852853		1.46102511012883		0.997147619724274	0.947114692660028	1.45193940108079	0.652310070210243	0.00359079209591766	99.1765982413683
576	0.96247610333187		1.48415697282937		0.996688485145569	0.962264058139045	1.47432611975166	0.652680601155688	0.00360831367132798	99.1725970503249
574	0.979046790826692		1.50955719977865		0.996220171451569	0.978834745633867	1.49893759706413	0.653019009964822	0.00374360403946524	99.1417078539174
572	0.997029355452102		1.5368513036735		0.9957315325737	0.996817310259277	1.52537997878146	0.65348786802327	0.00373211325416175	99.1443310305824
570	1.0152699529134		1.56454742660971		0.995352268218994	1.01505790772057	1.55236637532441	0.653877798344124	0.00381069613766436	99.1263931038721
568	1.0335196021935		1.59221339207533		0.995181918144226	1.03330755700068	1.5796333633638	0.654143917801447	0.00386081712259972	99.1149538017801
566	1.05195419928781		1.62025996056678		0.995282471179962	1.05174215409498	1.60770722728454	0.654187613419769	0.00395385213944289	99.0937235670714
564	1.07493246244062		1.65489311350456		0.995623111724854	1.0747204172478	1.64273904084891	0.654224676301856	0.00394096868372393	99.0966632510631
562	1.09716261280345		1.68861321957099		0.996170461177826	1.09695056761063	1.6772331195656	0.654023912844469	0.00403016397807369	99.0763128924773
560	1.12191209665231		1.72597303631624		0.99668163061142	1.12170005145949	1.7153296088203	0.653926828809845	0.00406377406731504	99.0686456643476
558	1.14883660429619		1.76675665797945		0.997178435325623	1.14862455910337	1.75685317796929	0.653796557109595	0.00416218392893695	99.0461995416924
556	1.17621288531473		1.80808730478696		0.997675478458405	1.17600084012191	1.79896345345707	0.653710245120316	0.00425428297638779	99.0251974478577
554	1.20503119452575		1.85133098381338		0.99818366765976	1.20481914933293	1.84304493145249	0.653711219282874	0.00429611997665901	99.0156584879096
552	1.23442242701329		1.89539661474082		0.998678505420685	1.23421038182047	1.88796599763897	0.653724899369972	0.00433991739486853	99.0056735313342
550	1.26234104201404		1.93714162922245		0.999059557914734	1.26212899682121	1.93039211946413	0.653820011020133	0.00439997129030698	98.9919840520729
548	1.28985800815165		1.97828142642135		0.999196529388428	1.28964596295882	1.97176351959352	0.654057116963339	0.00449669747994851	98.9699389844653
546	1.31696159752088		2.01848460985446		0.99907249212265	1.31674955232806	2.01168464543701	0.654550679856691	0.0045852226165305	98.9497673386076
544	1.34568137767956		2.06092010895247		0.998806416988373	1.34546933248674	2.05353373806397	0.655197091504918	0.00466163900404006	98.9323581407327
542	1.37078867250111		2.09769188492858		0.998482644557953	1.37057662730829	2.08958404604141	0.655908830230956	0.00475446304095376	98.9112150686491
540	1.39254976738486		2.12920206180463		0.99831360578537	1.39233772219204	2.12068732683925	0.656550215852531	0.00482345729818903	98.8955027719086
538	1.41252101486366		2.15810434196258		0.998360693454742	1.41230896967083	2.14964225420866	0.656997212864493	0.00492415676963261	98.8725746187748
