Wavelength	I1	I1 dark	R1	R1dark	XCorrect	I1c	R1c	I1c/R1c	Abs	Percent T
nm	uA	uA	uA	uA		uA	uA	uA/uA	OD	T*100
	Abs Detector Raw	Dark Offset for Abs Detector	Ref Detector Raw	Dark Offset for Ref Detector	Linear interp	Dark subtracted Abs Detector	Corrected Ref Detector	Corrected Intensity 	-Log(T)	% Transmittance
800	0.143367253760629	2.2473062902298E-4	0.209098135150813	0.00494270354584747	1.35067892074585	0.143142523131606	0.275748438024598	0.519105472208828	5.66455606729188E-4	99.8696538009605
798	0.144228748889633		0.21058770156637		1.34199333190918	0.14400401826061	0.275974216084018	0.521802436126023	6.7891401199602E-4	99.8437963966761
796	0.155945849901773		0.227578271109075		1.33337259292603	0.15572111927275	0.296856163999338	0.524567579041741	5.93400515116597E-4	99.8634577857955
794	0.166656659032559		0.242752538397685		1.32502686977386	0.166431928403536	0.315104421075169	0.5281802389051	6.26061047618675E-4	99.8559479711285
792	0.162652188757423		0.236676201523161		1.31713449954987	0.1624274581284	0.305224184887288	0.532157889743829	4.357134646812E-4	99.8997235775811
790	0.15256488838269		0.222328459042039		1.30966234207153	0.152340157753667	0.284701937676132	0.535086480257696	4.52824063661028E-4	99.8957877448521
788	0.149360904096787		0.218053399092081		1.30193436145782	0.149136173467764	0.277456137325818	0.537512613363577	4.95194086128243E-4	99.8860423290401
786	0.152593874970099		0.222774728571506		1.29363858699799	0.152369144341076	0.281795913057103	0.540707431445963	4.04968725031676E-4	99.9067959670278
784	0.156736619704522		0.228732665864594		1.28498160839081	0.156511889075499	0.287565985722061	0.544264262278819	3.79468284362276E-4	99.9126623600543
782	0.162088509560456		0.236498142975898		1.27644824981689	0.161863778931433	0.295568535396071	0.547635352032756	4.51311238950941E-4	99.896135723207
780	0.171280554659225		0.249730813363697		1.268270611763	0.171055824030202	0.310457565790993	0.550979724376762	3.68450295032948E-4	99.9151971622629
778	0.184060356549077		0.268222951503918		1.26044166088104	0.183835625920054	0.331849393013442	0.553973066669455	5.61947033227611E-4	99.870690590583
776	0.200156467095722		0.291232250423207		1.25292003154755	0.199931736466699	0.358697908105315	0.557381941597492	3.34988781260354E-4	99.922895723231
774	0.222997841287289		0.324052986376047		1.24577045440674	0.222773110658266	0.39753816204724	0.560381698982132	4.66350924211121E-4	99.8926763644341
772	0.275949079784203		0.400434563524454		1.23883104324341	0.27572434915518	0.489947593491573	0.562762942032742	3.31874640008115E-4	99.9236122304403
770	0.373147856480166		0.540567221045566		1.23221707344055	0.372923125851143	0.660005675416511	0.565030180408376	3.59334588250163E-4	99.9172943733424
768	0.443871764583798		0.6402261665702		1.22665858268738	0.443647033954775	0.779275912358182	0.56930674606924	3.82972698951121E-4	99.9118561467739
766	0.41888835007181		0.60227647922184		1.22236526012421	0.418663619442787	0.730160056085159	0.573386089739697	4.52000995202128E-4	99.8959770660464
764	0.352598186152122		0.507047377429505		1.2186872959137	0.352373455523099	0.611908587280903	0.575859634670135	3.30458382461204E-4	99.9239380872186
762	0.322154671564296		0.464746400120504		1.214359998703	0.321929940935273	0.558367216376036	0.576555950087276	2.85767795371629E-4	99.9342211771915
760	0.328577818816462		0.474046512998382		1.20898902416229	0.328353088187439	0.567141356820833	0.578961636703863	2.62818706634468E-4	99.9395020637799
758	0.346972289568157		0.500281970962398		1.2031888961792	0.346747558939134	0.595986706397132	0.581804183243109	3.62864093812302E-4	99.9164823501003
756	0.372272507667746		0.53615862822871		1.19780671596527	0.372047777038723	0.636294002212834	0.584710488775402	2.65172094681204E-4	99.9389605054546
754	0.397744209531298		0.57200357315384		1.1931779384613	0.397519478902275	0.676604519380938	0.587521170071384	2.91141552457039E-4	99.9329846454622
752	0.420681862027534		0.604182487515005		1.18890511989594	0.420457131398511	0.712439247206266	0.59016559383453	3.03014006915268E-4	99.9302527811594
750	0.449937795138172		0.645400879684289		1.1848680973053	0.449713064509149	0.758858460564776	0.592617843615334	2.62804988288593E-4	99.9395052206348
748	0.493629546062222		0.707125308758939		1.18107759952545	0.493404815433199	0.829332145793607	0.594942349619221	1.99184654334101E-4	99.9541465543248
746	0.549407345521962		0.785670642307392		1.17750906944275	0.549182614892939	0.919314228659062	0.597382916278792	2.91601717610372E-4	99.9328787595835
744	0.600829671366293		0.857278361442649		1.174187541008	0.60060494073727	1.00080191025928	0.600123695389102	2.90739841208526E-4	99.9330770809507
742	0.650624259485195		0.925882505150454		1.17108881473541	0.650399528856172	1.0785023007038	0.603058081963976	2.35767528386026E-4	99.9457272533587
740	0.726069177396622		1.030920828095		1.16803753376007	0.725844446767599	1.19838095829017	0.605687566834523	2.35835997420686E-4	99.9457114963385
738	0.836622853712684		1.18480291457728		1.16498303413391	0.836398123083661	1.37451712850128	0.608503237784775	2.34853076779088E-4	99.9459376995672
736	0.933981351553639		1.31877038413475		1.16204738616943	0.933756620924616	1.52673002210538	0.611605593264585	2.92775266132318E-4	99.9326087217898
734	0.983415946082671		1.38491062434898		1.15931880474091	0.983191215453648	1.59982276052628	0.614562587627028	2.62162619917856E-4	99.9396530420493
732	0.992620215149896		1.396925870883		1.15665113925934	0.992395484520873	1.61003891633034	0.616379811975462	2.80871984275164E-4	99.9353477441801
730	0.989404412855617		1.39370098197987		1.15388596057892	0.989179682226594	1.60246868012277	0.617284877075294	2.66448947958939E-4	99.9386666790142
728	0.987798240681859		1.39421069877471		1.15089321136475	0.987573510052836	1.59889910447521	0.617658429658685	2.75815435322019E-4	99.9365113116232
726	0.994276508783415		1.40711240038332		1.1476241350174	0.994051778154392	1.6091637854807	0.617744313614068	2.97504459881773E-4	99.9315205244604
724	1.00945160882043		1.43211992103534		1.14410185813904	1.00922687819141	1.63283610642343	0.618082166496197	2.60037259728069E-4	99.9401421301878
722	1.01856889058332		1.44788077546455		1.14027833938599	1.0183441599543	1.64535102848428	0.618922128059451	2.55046873321971E-4	99.9412905279063
720	1.00511952875962		1.43067157997668		1.13600122928619	1.0048947981306	1.61962975625425	0.620447231381225	3.54656725781834E-4	99.9183706059403
718	0.953129730688552		1.35726299018211		1.13137769699097	0.952905000059529	1.5299850114887	0.622819826929112	3.40118930832641E-4	99.9217153804119
716	0.855289967895907		1.21769529695318		1.12621939182281	0.855065237266884	1.36582548817874	0.626042817817866	3.95132902216489E-4	99.9090586636813
714	0.728741147905965		1.0373696943412		1.12039887905121	0.728516417276942	1.15673004318933	0.629806774334555	4.09329887713667E-4	99.9057927131972
712	0.597187865655747		0.851334754899015		1.11375534534454	0.596963135026724	0.942673671451724	0.633265946748461	3.70745505870512E-4	99.9146691200083
710	0.490337935052425		0.701671371097627		1.10628998279572	0.490113204423402	0.770783945639139	0.635863275560309	2.30442771871106E-4	99.9469526659462
708	0.411797369875535		0.59331233130844		1.09837675094604	0.411572639246512	0.64625152009721	0.636861386700649	1.45154881223544E-4	99.9665824383433
706	0.353696856191678		0.514496377949057		1.09038031101227	0.353472125562655	0.555607293973215	0.636190578123862	1.24151229596714E-4	99.9714172086037
704	0.311236002479507		0.458068864746796		1.0826700925827	0.311011271850484	0.490586142899075	0.633958533791009	1.11045624121628E-4	99.9744340687669
702	0.286049590531807		0.426217750066938		1.07555782794952	0.285824859902784	0.453105674005558	0.630812802179294	1.24333930794304E-4	99.9713751521315
700	0.27188930982667		0.40949660084176		1.0694442987442	0.271664579197647	0.432647858997861	0.627911530238245	4.01726429306255E-5	99.9907503349321
698	0.273086396919055		0.41432169268039		1.0649927854538	0.272861666290032	0.435985669944656	0.62585007971631	1.49710194658289E-4	99.9655338946782
696	0.289669341493906		0.440737199471811		1.06259047985077	0.289444610864883	0.463071082542294	0.625054385334991	3.50340895726448E-4	99.9193635562715
694	0.31686386988866		0.481847589932542		1.06203079223633	0.316639139259637	0.506487674310637	0.625166524912187	4.38787231409098E-4	99.8990165288559
692	0.343293079988132		0.520912444207599		1.06277585029602	0.343068349359109	0.54836017985881	0.625625933391883	3.70381334392683E-4	99.914752902072
690	0.362134048235601		0.548468420049639		1.06392598152161	0.361909317606578	0.578271131413531	0.625847112101072	4.18712010498557E-4	99.9036344580761
688	0.375473734156419		0.568171246203821		1.06461536884308	0.375249003527396	0.599621762684768	0.625809513395983	4.1742327443579E-4	99.9039309150032
686	0.38342638182972		0.580020776796121		1.0645604133606	0.383201651200697	0.612205351373926	0.625936461255536	3.70308120646851E-4	99.9147697457904
684	0.382968296504402		0.579430376102679		1.06376242637634	0.382743565875379	0.611118400482353	0.62630018270319	3.88430399574474E-4	99.9106005803413
682	0.376867682209931		0.570424924173331		1.06245732307434	0.376642951580908	0.60080072637401	0.626901624859955	3.11429642446812E-4	99.9283163797705
680	0.376064370750739		0.569841607220096		1.06094348430634	0.375839640121716	0.599325811144986	0.627104044465715	4.60128412529128E-4	99.8941076232332
678	0.382422176816643		0.579866174745957		1.05921316146851	0.38219744618762	0.608966507532316	0.627616529743777	4.2110416534778E-4	99.903084176377
676	0.390949549219093		0.593140970835492		1.05730748176575	0.39072481859007	0.62190642876699	0.628269463888213	4.34183639368213E-4	99.900075480268
674	0.398005277340313		0.604202343166781		1.05524814128876	0.39778054671129	0.632367620859361	0.629033703798312	3.51922576146661E-4	99.9189996552326
672	0.404222541414592		0.613976095263958		1.05312037467957	0.403997810785569	0.641385473678543	0.62988300696696	3.74347211436704E-4	99.9138405077586
670	0.410421352730154		0.623859806772316		1.0509113073349	0.410196622101131	0.650426982083657	0.630657450259916	3.66129314890969E-4	99.9157311359094
668	0.41601735124295		0.632640212010669		1.0485315322876	0.415792620613927	0.658160630363726	0.631749456639701	3.41857257120743E-4	99.921315430138
666	0.419043916172263		0.637694718521234		1.04595601558685	0.41881918554324	0.661830776438208	0.632819144188504	3.92111083921904E-4	99.9097538327065
664	0.422198007346183		0.643006052118175		1.04322910308838	0.42197327671716	0.665646254844677	0.633930219911813	4.09639512243789E-4	99.9057214867037
662	0.42668018780923		0.650197685695395		1.04042720794678	0.426455457180207	0.671340839491602	0.635229427578332	4.0638932052027E-4	99.906469168237
660	0.432737348124382		0.65982686168231		1.03775990009308	0.432512617495359	0.679612518520235	0.636410610029812	3.67154485777219E-4	99.915495280788
658	0.440894486458487		0.672510578367468		1.03528940677643	0.440669755829464	0.691125949107076	0.637611359259195	4.07313264777498E-4	99.9062566214189
656	0.452229643883897		0.690114017323007		1.03309750556946	0.452004913254874	0.707848775150932	0.638561411875715	4.10496401023177E-4	99.9055243669823
654	0.468903797259654		0.715862854805569		1.03115320205688	0.468679066630631	0.733067590378227	0.639339499907253	4.28708644688949E-4	99.9013348926071
652	0.486599769784159		0.743040323263867		1.02945709228516	0.486375039155136	0.759839829417508	0.64010205878256	4.04110734822948E-4	99.9069933426357
650	0.498943854512666		0.762123049017695		1.02793705463409	0.498719123883643	0.778333734151157	0.640752291724246	4.64863125149335E-4	99.8930185757468
648	0.502858586247512		0.768294569378777		1.02666783332825	0.502633855618489	0.783708806161768	0.641352823480637	4.7950632575279E-4	99.8896505181013
646	0.503220413028293		0.769105317056201		1.02560043334961	0.50299568239927	0.783725507565789	0.641800831469105	3.99370103864097E-4	99.9080839039722
644	0.505931131401251		0.773709978903037		1.02465677261353	0.505706400772228	0.787722595258391	0.641985394117512	4.55885438426773E-4	99.8950835743442
642	0.514054098592914		0.786591404327639		1.02378344535828	0.513829367963891	0.800238999946203	0.642094884151402	5.12142103805542E-4	99.882144426924
640	0.525700506627432		0.804671828144553		1.02288675308228	0.525475775998409	0.818032327606101	0.642365537724123	4.5751467690708E-4	99.8947088226131
638	0.539248930950736		0.825653613949386		1.02184903621674	0.539024200321714	0.838642652808416	0.642734063807331	4.7869399102051E-4	99.8898373588552
636	0.554473880535897		0.849202037622381		1.02063095569611	0.554249149906874	0.861677210993891	0.643221316329791	4.21942369850504E-4	99.9028913598949
634	0.568840934311497		0.871439232968096		1.01923584938049	0.568616203682474	0.883164326150935	0.643839642120345	4.31526594630751E-4	99.9006866779526
632	0.582137082940008		0.892019858801387		1.0177036523819	0.581912352310985	0.902781660848106	0.644577063920767	4.66416699233029E-4	99.8926612354312
630	0.595138997560907		0.912171876848305		1.01619136333466	0.594914266931884	0.921918450475197	0.645300315472848	4.48609136447475E-4	99.8967572610101
628	0.609869266667087		0.935000325243415		1.01451146602631	0.609644536038064	0.943554121277339	0.646115068855569	5.30148432173001E-4	99.8780032888669
626	0.625351585635984		0.959042613965706		1.01275491714478	0.625126855006961	0.966269375725102	0.646948843367676	5.62405629339137E-4	99.8705851315268
624	0.641164409059127		0.983468852271424		1.01092803478241	0.640939678430104	0.989219516514347	0.64792461908611	5.50940314011061E-4	99.8732217362108
622	0.65545756543512		1.00565996576918		1.0092089176178	0.655232834806097	1.00993278504985	0.648788557521432	5.68936919190131E-4	99.8690832040064
620	0.665847662439502		1.02165366657197		1.00772297382355	0.665622931810479	1.02456299517969	0.649665208427464	5.6346574160692E-4	99.8703413478554
618	0.673985477653567		1.03437544050795		1.0068142414093	0.673760747024544	1.0364475401464	0.650067389739158	5.56173337555436E-4	99.872018322873
616	0.680666793544838		1.04487103281221		1.00664889812469	0.680442062915815	1.04684270678463	0.649994558404849	5.78102395853095E-4	99.8669755601593
614	0.688203086239334		1.0566235623673		1.00700271129608	0.687978355610311	1.05904547625139	0.649621164565555	6.04458144522169E-4	99.8609151814205
612	0.695105537078452		1.06751016602253		1.00780045986176	0.694880806449429	1.07085597731814	0.648902206429008	6.49625024658933E-4	99.8505301278682
610	0.703735022517603		1.08099857661316		1.00835275650024	0.70351029188858	1.0850439057557	0.648370345344326	6.79873840025057E-4	99.8435757335722
608	0.713295450641023		1.0958023418128		1.0085117816925	0.713070720012	1.10014479736504	0.648160789125101	6.3897439101387E-4	99.8529788913233
606	0.72491398483532		1.1138492240649		1.00798010826111	0.724689254206297	1.11775571460425	0.648343143978361	6.95180901808679E-4	99.8400567276599
604	0.738443975320808		1.13472643101273		1.00688087940216	0.738219244691785	1.13755763304611	0.648951071353642	7.11803958895201E-4	99.836235322439
602	0.753318496135396		1.15760837428068		1.00539457798004	0.753093765506373	1.15888381558052	0.649844061485252	7.23384797669352E-4	99.8335731381883
600	0.770683506136809		1.18398562789842		1.00393652915955	0.770458775507786	1.18368426120464	0.650898893192755	7.02694209573332E-4	99.8383295065781
598	0.788364536644773		1.21106003178194		1.00287997722626	0.78813980601575	1.2095909186736	0.651575498665282	8.05702269374938E-4	99.8146521781322
596	0.807678779121308		1.24033026756586		1.00218975543976	0.807454048492285	1.23809276065853	0.652175728790148	7.48447878378941E-4	99.8278119213004
594	0.827733754932285		1.2708428434327		1.00178515911102	0.827509024303262	1.26815997305522	0.652527316652052	7.55972662084986E-4	99.8260822742148
592	0.847913318145109		1.30158042296076		1.00154709815979	0.847688587516086	1.29864374524454	0.652749139723816	7.54976678436206E-4	99.8263112093356
590	0.866343398332696		1.32966900103456		1.00122630596161	0.866118667703673	1.32635081724482	0.653008733769869	7.89550830941716E-4	99.8183643601998
588	0.883167821483243		1.35524112007301		1.00070452690125	0.88294309085422	1.35124973808631	0.653427020903387	7.92686849993023E-4	99.8176435793122
586	0.898729232553875		1.37882860533032		0.999973237514496	0.898504501924852	1.37384913318294	0.65400521805709	8.19999651746879E-4	99.8113662400932
584	0.912873919997355		1.40025907643609		0.999053955078125	0.912649189368332	1.39399634092126	0.654699845743628	8.42996119273651E-4	99.8060812360938
582	0.926937210346435		1.42144413128308		0.998229086399078	0.926712479717412	1.41399292609313	0.655386927767683	8.56923708030592E-4	99.8028805604604
580	0.939876083585749		1.44097162510154		0.997582137584686	0.939651352956726	1.43255680119896	0.655926070205593	8.74017439038363E-4	99.7989524193219
578	0.953413748326577		1.46194485011539		0.997147619724274	0.953189017697554	1.45284622238497	0.6560839013869	0.00108549378936361	99.7503679185977
576	0.967946500343702		1.48470095354008		0.996688485145569	0.967721769714679	1.47485800856841	0.656145719854082	0.00130871834420686	99.699110048871
574	0.9858739834874		1.51036399909184		0.996220171451569	0.985649252858377	1.49973106115567	0.657217336086146	9.60417458867718E-4	99.7791000514556
572	1.00184605770336		1.53449749142704		0.9957315325737	1.00162132707434	1.52302593309238	0.657652181299781	9.73377664997577E-4	99.7761224902316
570	1.02071119678814		1.56286201646019		0.995352268218994	1.02048646615912	1.55067852181147	0.658090282289463	0.00102180996515045	99.7649961281173
568	1.03953328716703		1.59118531712827		0.995181918144226	1.03930855653801	1.57859996682706	0.65837360850006	0.0010617113542644	99.7558305060959
566	1.0594024911892		1.62100111412827		0.995282471179962	1.05917776056018	1.60843460845563	0.658514654554197	0.00109072477274944	99.7491664541614
564	1.08009207789852		1.65188347972752		0.995623111724854	1.0798673472695	1.63973230040855	0.658563197785665	0.00107043211512864	99.7538273998061
562	1.1040827501049		1.68804128842094		0.996170461177826	1.10385801947588	1.67665309350276	0.658369953661534	0.00115378899237901	99.7346828562945
560	1.12930318304856		1.7257583891003		0.99668163061142	1.12907845241954	1.71510538346012	0.658314330599144	0.00115962050789112	99.7333436717788
558	1.15672516841262		1.76666381862435		0.997178435325623	1.1565004377836	1.7567503050141	0.658318051508361	0.00116904929407438	99.7311784262964
556	1.18544561995802		1.80968324350128		0.997675478458405	1.18522088932899	1.80054538169332	0.658256604570752	0.00124434911121705	99.7138881110513
554	1.21254112918813		1.84989926018629		0.99818366765976	1.21231639855911	1.84160550238028	0.658293210458039	0.00126268269767039	99.7096788137233
552	1.24233644278977		1.89415608496062		0.998678505420685	1.24211171216075	1.88671679617207	0.658345605806264	0.00128100311241431	99.7054727180509
550	1.26945500774489		1.93428236043505		0.999059557914734	1.26923027711587	1.92752522467909	0.658476610767663	0.00131782655369808	99.6970191384496
548	1.29878124816726		1.97750306094594		0.999196529388428	1.29855651753824	1.97097546312337	0.658839514663686	0.00133273457862958	99.6935968980131
546	1.32560953083594		2.01676368456836		0.99907249212265	1.32538480020692	2.0099550012148	0.659410185504583	0.00137284975889897	99.6843887637123
544	1.35487657173462		2.05967584748283		0.998806416988373	1.35465184110559	2.05228064936295	0.660071438828842	0.00144265856277963	99.6683667119019
542	1.38118597592637		2.09766566422556		0.998482644557953	1.38096124529734	2.08954755610663	0.66089007702243	0.00146870953413551	99.6623883262619
540	1.40246236744291		2.12821144901562		0.99831360578537	1.40223763681389	2.11968807734131	0.661530180691819	0.00154174315306507	99.6456298980238
538	1.42259831218667		2.15682493767082		0.998360693454742	1.42237358155765	2.14835463949394	0.662075783676338	0.00157998069522477	99.6368569653644
